
X-Axis: Frequency (hz)
Y-Axis: Fourier Amplitude (cm/s)
Number of Data Sets: 4


DATASET #1

Name: FAS H1 (cm/s)
Num Points: 2044
Info: 

X, Y Data:
0.009765625	1.7155546
0.012207031	2.0722473
0.014648438	2.3685753
0.017089844	2.5817327
0.01953125	2.6891537
0.021972656	2.6755924
0.024414062	2.5456944
0.026855469	2.3458748
0.029296875	2.1949742
0.03173828	2.2789383
0.034179688	2.7129693
0.036621094	3.4297647
0.0390625	4.2885203
0.041503906	5.1721287
0.043945312	5.9993973
0.04638672	6.719041
0.048828125	7.3061957
0.05126953	7.760731
0.053710938	8.104261
0.056152344	8.373449
0.05859375	8.609522
0.061035156	8.846471
0.06347656	9.102021
0.06591797	9.374671
0.068359375	9.647571
0.07080078	9.896813
0.07324219	10.099707
0.075683594	10.239412
0.078125	10.30486
0.080566406	10.287981
0.08300781	10.181696
0.08544922	9.980207
0.087890625	9.6810055
0.09033203	9.285066
0.09277344	8.79434
0.095214844	8.20791
0.09765625	7.521876
0.10009766	6.7364974
0.10253906	5.870302
0.10498047	4.9773474
0.10742188	4.1657653
0.10986328	3.6083324
0.11230469	3.486643
0.11474609	3.822356
0.1171875	4.4375863
0.11962891	5.125406
0.12207031	5.746449
0.12451172	6.232963
0.12695312	6.577029
0.12939453	6.8128266
0.13183594	6.9892826
0.13427734	7.1427245
0.13671875	7.2867975
0.13916016	7.423845
0.14160156	7.562122
0.14404297	7.7204003
0.14648438	7.91548
0.14892578	8.14576
0.15136719	8.387856
0.1538086	8.612231
0.15625	8.807213
0.1586914	8.993458
0.16113281	9.216182
0.16357422	9.515019
0.16601562	9.892707
0.16845703	10.313128
0.17089844	10.739073
0.17333984	11.184112
0.17578125	11.740132
0.17822266	12.556601
0.18066406	13.774331
0.18310547	15.449536
0.18554688	17.516922
0.18798828	19.815832
0.19042969	22.161901
0.1928711	24.426176
0.1953125	26.579866
0.1977539	28.678719
0.20019531	30.79704
0.20263672	32.960083
0.20507812	35.126213
0.20751953	37.226475
0.20996094	39.220745
0.21240234	41.11919
0.21484375	42.948204
0.21728516	44.687485
0.21972656	46.2354
0.22216797	47.44119
0.22460938	48.18757
0.22705078	48.46324
0.22949219	48.367935
0.2319336	48.040237
0.234375	47.56189
0.2368164	46.91767
0.23925781	46.037148
0.24169922	44.86518
0.24414062	43.39022
0.24658203	41.612545
0.24902344	39.494896
0.25146484	36.95213
0.25390625	33.906723
0.25634766	30.3874
0.25878906	26.6202
0.26123047	23.070969
0.26367188	20.409506
0.26611328	19.305561
0.2685547	19.996132
0.2709961	22.05113
0.2734375	24.71334
0.2758789	27.303406
0.2783203	29.353352
0.28076172	30.59211
0.28320312	30.886456
0.28564453	30.183113
0.28808594	28.48838
0.29052734	25.889683
0.29296875	22.579487
0.29541016	18.836864
0.29785156	14.96104
0.30029297	11.19331
0.30273438	7.681101
0.30517578	4.5424266
0.3076172	2.3608038
0.3100586	3.2197657
0.3125	5.706385
0.3149414	8.399902
0.3173828	11.146256
0.31982422	13.987118
0.32226562	16.974087
0.32470703	20.081469
0.32714844	23.163225
0.32958984	25.96984
0.33203125	28.220253
0.33447266	29.692102
0.33691406	30.28825
0.33935547	30.052336
0.34179688	29.140547
0.34423828	27.773453
0.3466797	26.188715
0.3491211	24.600677
0.3515625	23.165752
0.3540039	21.943682
0.3564453	20.858389
0.35888672	19.705683
0.36132812	18.253172
0.36376953	16.380396
0.36621094	14.152458
0.36865234	11.786036
0.37109375	9.55374
0.37353516	7.679162
0.37597656	6.2555356
0.37841797	5.2780147
0.38085938	4.835703
0.38330078	5.144306
0.3857422	6.2352266
0.3881836	7.951191
0.390625	10.13506
0.3930664	12.551211
0.3955078	14.869283
0.39794922	16.834064
0.40039062	18.36889
0.40283203	19.449892
0.40527344	19.906797
0.40771484	19.42779
0.41015625	17.771795
0.41259766	14.937213
0.41503906	11.105377
0.41748047	6.418535
0.41992188	1.1507963
0.42236328	6.031869
0.4248047	13.45699
0.4272461	21.0678
0.4296875	28.043888
0.4321289	33.816486
0.4345703	38.293087
0.43701172	41.780632
0.43945312	44.677788
0.44189453	47.172718
0.44433594	49.145344
0.44677734	50.305
0.44921875	50.42564
0.45166016	49.48136
0.45410156	47.606556
0.45654297	45.038113
0.45898438	42.223072
0.46142578	39.957523
0.4638672	39.16768
0.4663086	40.284267
0.46875	42.892754
0.4711914	46.05431
0.4736328	48.763466
0.47607422	50.23183
0.47851562	50.131126
0.48095703	48.749744
0.48339844	46.879128
0.48583984	45.43198
0.48828125	44.993183
0.49072266	45.49765
0.49316406	46.193916
0.49560547	46.00469
0.49804688	44.07282
0.5004883	40.056103
0.5029297	34.02832
0.5053711	26.284966
0.5078125	17.402103
0.5102539	8.661694
0.5126953	5.174518
0.5151367	10.228518
0.5175781	15.212391
0.52001953	19.08845
0.52246094	22.492235
0.52490234	25.976023
0.52734375	29.566746
0.52978516	32.86353
0.53222656	35.446526
0.53466797	37.189392
0.5371094	38.134357
0.5395508	38.12255
0.5419922	36.79364
0.5444336	34.07046
0.546875	30.491474
0.5493164	26.905987
0.5517578	23.879417
0.5541992	21.671581
0.5566406	20.764864
0.55908203	21.753632
0.56152344	24.60638
0.56396484	28.714123
0.56640625	33.338135
0.56884766	37.695503
0.57128906	41.128197
0.57373047	43.379192
0.5761719	44.551826
0.5786133	44.741325
0.5810547	43.76407
0.5834961	41.270508
0.5859375	37.09682
0.5883789	31.534538
0.5908203	25.287695
0.5932617	19.22461
0.5957031	14.490175
0.59814453	12.976204
0.60058594	15.179111
0.60302734	18.4987
0.60546875	20.688782
0.60791016	20.894632
0.61035156	19.088585
0.61279297	15.531093
0.6152344	10.514061
0.6176758	4.46372
0.6201172	2.0066166
0.6225586	7.7783084
0.625	12.293529
0.6274414	15.335139
0.6298828	17.263174
0.6323242	18.692696
0.6347656	20.086084
0.63720703	21.507217
0.63964844	22.716074
0.64208984	23.44916
0.64453125	23.62169
0.64697266	23.448105
0.64941406	23.565407
0.65185547	24.934301
0.6542969	28.21614
0.6567383	33.202103
0.6591797	39.11922
0.6616211	45.21412
0.6640625	50.889
0.6665039	55.573486
0.6689453	58.8091
0.6713867	60.559544
0.6738281	61.288986
0.67626953	61.59061
0.67871094	61.809975
0.68115234	62.173153
0.68359375	63.116295
0.68603516	65.05356
0.68847656	67.72935
0.69091797	70.252785
0.6933594	71.9534
0.6958008	72.936745
0.6982422	73.74685
0.7006836	74.6454
0.703125	75.32315
0.7055664	75.19962
0.7080078	73.76507
0.7104492	70.57713
0.7128906	65.24094
0.71533203	57.768524
0.71777344	48.940598
0.72021484	40.03784
0.72265625	32.174213
0.72509766	26.179855
0.72753906	23.000158
0.72998047	23.082186
0.7324219	25.35574
0.7348633	28.187155
0.7373047	30.383095
0.7397461	31.294699
0.7421875	31.059872
0.7446289	30.716919
0.7470703	31.38246
0.7495117	33.108242
0.7519531	35.111385
0.75439453	36.70897
0.75683594	37.45116
0.75927734	36.95428
0.76171875	35.15265
0.76416016	32.587154
0.76660156	30.231474
0.76904297	28.95025
0.7714844	28.971888
0.7739258	29.791672
0.7763672	30.612816
0.7788086	30.798256
0.78125	29.965733
0.7836914	27.94579
0.7861328	24.836575
0.7885742	21.065226
0.7910156	17.390387
0.79345703	15.001221
0.79589844	15.173702
0.79833984	17.717058
0.80078125	21.060724
0.80322266	23.941412
0.80566406	25.85024
0.80810547	26.745834
0.8105469	26.702198
0.8129883	25.794374
0.8154297	24.388159
0.8178711	23.617352
0.8203125	25.212385
0.8227539	30.021849
0.8251953	37.25653
0.8276367	45.486656
0.8300781	53.332813
0.83251953	59.655846
0.83496094	63.718407
0.83740234	65.17007
0.83984375	63.841663
0.84228516	59.693203
0.84472656	53.061413
0.84716797	44.857086
0.8496094	36.36834
0.8520508	28.771626
0.8544922	22.735218
0.8569336	18.361145
0.859375	15.447528
0.8618164	13.878189
0.8642578	13.723493
0.8666992	14.846042
0.8691406	16.789288
0.87158203	19.172853
0.87402344	21.753181
0.87646484	24.2091
0.87890625	26.14339
0.88134766	27.208315
0.88378906	27.117422
0.88623047	25.691315
0.8886719	23.11035
0.8911133	20.220778
0.8935547	18.53927
0.8959961	19.278727
0.8984375	21.945755
0.9008789	24.97831
0.9033203	27.043276
0.9057617	27.345383
0.9082031	25.708096
0.91064453	22.807783
0.91308594	20.387197
0.91552734	20.919014
0.91796875	25.637398
0.92041016	33.24971
0.92285156	41.4584
0.92529297	48.15287
0.9277344	51.947678
0.9301758	52.3612
0.9326172	49.593285
0.9350586	44.272015
0.9375	37.46392
0.9399414	30.73893
0.9423828	25.938658
0.9448242	24.307583
0.9472656	25.234287
0.94970703	26.638649
0.95214844	26.647404
0.95458984	24.41871
0.95703125	20.208193
0.95947266	15.074462
0.96191406	10.398415
0.96435547	7.5568824
0.9667969	7.6617866
0.9692383	10.42225
0.9716797	14.731619
0.9741211	19.649553
0.9765625	24.240236
0.9790039	27.643715
0.9814453	29.268175
0.9838867	28.881145
0.9863281	26.58741
0.98876953	22.757946
0.99121094	17.996206
0.99365234	13.227287
0.99609375	9.762046
0.99853516	8.573875
1.0009766	9.064071
1.003418	10.62644
1.0058594	13.680425
1.0083008	18.340576
1.0107422	24.1103
1.0131836	30.263803
1.015625	35.98619
1.0180664	40.595512
1.0205078	43.7522
1.0229492	45.300545
1.0253906	44.97445
1.027832	42.534885
1.0302734	38.25301
1.0327148	33.03386
1.0351562	27.958864
1.0375977	23.804224
1.0400391	21.044752
1.0424805	20.013107
1.0449219	20.786568
1.0473633	23.025757
1.0498047	26.135876
1.0522461	29.600143
1.0546875	33.055454
1.0571289	36.160957
1.0595703	38.77194
1.0620117	41.36948
1.0644531	44.90701
1.0668945	49.809704
1.0693359	55.42518
1.0717773	60.642887
1.0742188	64.548325
1.0766602	66.44391
1.0791016	65.79524
1.081543	62.523834
1.0839844	57.28868
1.0864258	51.277348
1.0888672	45.6006
1.0913086	40.769165
1.09375	36.5626
1.0961914	32.379627
1.0986328	27.909597
1.1010742	23.611805
1.1035156	20.503464
1.105957	19.175108
1.1083984	19.034887
1.1108398	19.022312
1.1132812	18.582222
1.1157227	17.702305
1.1181641	16.400942
1.1206055	14.354542
1.1230469	11.120501
1.1254883	6.67067
1.1279297	2.1490364
1.1303711	5.0347185
1.1328125	10.253259
1.1352539	15.147251
1.1376953	19.271257
1.1401367	22.188608
1.1425781	23.63592
1.1450195	23.519703
1.1474609	21.753048
1.1499023	18.341297
1.1523438	13.720984
1.1547852	9.175941
1.1572266	7.507993
1.159668	9.8836155
1.1621094	13.272547
1.1645508	16.257687
1.1669922	18.822618
1.1694336	21.18376
1.171875	23.473791
1.1743164	25.974592
1.1767578	29.237852
1.1791992	33.723057
1.1816406	39.302547
1.184082	45.262363
1.1865234	50.763496
1.1889648	55.222267
1.1914062	58.294632
1.1938477	59.68751
1.1962891	59.156796
1.1987305	56.68272
1.2011719	52.53884
1.2036133	47.145226
1.2060547	40.89449
1.2084961	34.160706
1.2109375	27.525417
1.2133789	21.952528
1.2158203	18.501522
1.2182617	17.458355
1.2207031	18.073809
1.2231445	19.48415
1.2255859	21.01674
1.2280273	21.899202
1.2304688	21.362137
1.2329102	19.212927
1.2353516	16.90194
1.237793	18.529089
1.2402344	26.543272
1.2426758	38.48978
1.2451172	51.35906
1.2475586	62.611645
1.25	70.168236
1.2524414	72.78425
1.2548828	70.25741
1.2573242	63.212837
1.2597656	52.747955
1.262207	40.45509
1.2646484	29.310593
1.2670898	25.088608
1.2695312	30.528624
1.2719727	39.553543
1.2744141	47.536358
1.2768555	53.284702
1.2792969	57.264286
1.2817383	60.466488
1.2841797	63.56433
1.2866211	66.49463
1.2890625	68.65861
1.2915039	69.51895
1.2939453	69.06609
1.2963867	67.83891
1.2988281	66.60844
1.3012695	65.995476
1.3037109	66.21338
1.3061523	66.96382
1.3085938	67.52939
1.3110352	67.02515
1.3134766	64.75831
1.315918	60.572803
1.3183594	54.97216
1.3208008	48.87881
1.3232422	43.150986
1.3256836	38.182217
1.328125	33.82724
1.3305664	29.6003
1.3330078	24.972477
1.3354492	19.699774
1.3378906	14.099968
1.340332	9.107547
1.3427734	5.7618294
1.3452148	3.941513
1.3476562	3.181665
1.3500977	5.0410466
1.3525391	8.02177
1.3549805	9.840151
1.3574219	9.194057
1.3598633	5.694556
1.3623047	1.6324438
1.3647461	7.9433436
1.3671875	14.968707
1.3696289	21.099781
1.3720703	26.47093
1.3745117	31.519318
1.3769531	35.8039
1.3793945	38.05304
1.3818359	37.710125
1.3842773	36.71516
1.3867188	39.26476
1.3891602	47.078854
1.3916016	57.22054
1.394043	66.362946
1.3964844	73.10488
1.3989258	77.5601
1.4013672	80.480156
1.4038086	82.69944
1.40625	84.75747
1.4086914	86.52374
1.4111328	87.33522
1.4135742	86.69008
1.4160156	84.602425
1.418457	81.12383
1.4208984	75.803825
1.4233398	68.04642
1.4257812	58.014416
1.4282227	46.996708
1.4306641	36.81496
1.4331055	28.712687
1.4355469	22.554571
1.4379883	17.131119
1.4404297	11.337203
1.4428711	5.5810876
1.4453125	6.463144
1.4477539	13.241184
1.4501953	20.334967
1.4526367	26.934387
1.4550781	32.581894
1.4575195	36.45452
1.4599609	37.684807
1.4624023	36.058186
1.4648438	32.377304
1.4672852	28.117813
1.4697266	24.428984
1.472168	21.33975
1.4746094	18.243565
1.4770508	14.864432
1.4794922	11.670204
1.4819336	11.095101
1.484375	16.527563
1.4868164	26.353893
1.4892578	37.871113
1.4916992	49.407516
1.4941406	60.035473
1.496582	69.28593
1.4990234	76.81143
1.5014648	82.1857
1.5039062	84.97182
1.5063477	84.92347
1.5087891	82.11533
1.5112305	76.9086
1.5136719	69.86034
1.5161133	61.688885
1.5185547	53.31827
1.5209961	45.864414
1.5234375	40.39838
1.5258789	37.31216
1.5283203	35.67275
1.5307617	33.50984
1.5332031	29.007854
1.5356445	21.552084
1.5380859	12.811063
1.5405273	12.192594
1.5429688	24.2271
1.5454102	40.168983
1.5478516	57.546127
1.550293	74.775345
1.5527344	89.858284
1.5551758	100.80318
1.5576172	106.30429
1.5600586	106.08356
1.5625	100.66314
1.5649414	90.717125
1.5673828	76.6095
1.5698242	58.68811
1.5722656	38.25791
1.574707	19.946291
1.5771484	20.440248
1.5795898	36.142673
1.5820312	51.130188
1.5844727	62.435177
1.5869141	69.98722
1.5893555	74.790665
1.5917969	77.99183
1.5942383	79.84691
1.5966797	79.56692
1.5991211	76.34147
1.6015625	70.44969
1.6040039	63.393932
1.6064453	56.87792
1.6088867	51.359177
1.6113281	45.830853
1.6137695	39.219505
1.6162109	31.705084
1.6186523	24.9676
1.6210938	21.7441
1.6235352	23.811514
1.6259766	29.749546
1.628418	37.235783
1.6308594	44.794895
1.6333008	51.665665
1.6357422	57.670723
1.6381836	63.11959
1.640625	68.568115
1.6430664	74.43258
1.6455078	80.65268
1.6479492	86.664314
1.6503906	91.72388
1.652832	95.25789
1.6552734	97.00247
1.6577148	96.98326
1.6601562	95.59432
1.6625977	93.659035
1.6650391	92.217224
1.6674805	92.031075
1.6699219	93.18346
1.6723633	95.09126
1.6748047	96.912605
1.6772461	98.01998
1.6796875	98.22929
1.6821289	97.663704
1.6845703	96.44224
1.6870117	94.475784
1.6894531	91.527824
1.6918945	87.406166
1.6943359	82.09538
1.6967773	75.69231
1.6992188	68.27722
1.7016602	59.96514
1.7041016	51.23477
1.706543	43.191174
1.7089844	37.281364
1.7114258	34.34941
1.7138672	33.925774
1.7163086	34.84312
1.71875	36.187077
1.7211914	37.517937
1.7236328	38.742508
1.7260742	39.833454
1.7285156	40.399483
1.730957	39.59625
1.7333984	36.684155
1.7358398	31.643589
1.7382812	25.22209
1.7407227	18.51662
1.7431641	12.626765
1.7456055	8.747401
1.7480469	8.053451
1.7504883	9.860444
1.7529297	12.460145
1.7553711	15.126859
1.7578125	17.860485
1.7602539	20.839266
1.7626953	23.875404
1.7651367	26.452152
1.7675781	28.29751
1.7700195	29.798092
1.7724609	31.869238
1.7749023	35.268833
1.7773438	39.856346
1.7797852	44.555325
1.7822266	47.986496
1.784668	49.176315
1.7871094	47.990444
1.7895508	45.139725
1.7919922	41.69166
1.7944336	38.3588
1.796875	35.23139
1.7993164	32.257683
1.8017578	29.784208
1.8041992	28.519941
1.8066406	29.068132
1.809082	31.595137
1.8115234	35.892838
1.8139648	41.52691
1.8164062	47.847782
1.8188477	54.001373
1.8212891	59.076637
1.8237305	62.41814
1.8261719	63.92474
1.8286133	64.01732
1.8310547	63.129906
1.8334961	61.23494
1.8359375	58.02489
1.8383789	53.56654
1.8408203	48.599064
1.8432617	44.196156
1.8457031	41.10596
1.8481445	39.295937
1.8505859	38.01155
1.8530273	36.347202
1.8554688	33.837597
1.8579102	30.663246
1.8603516	27.431545
1.862793	24.705511
1.8652344	22.487587
1.8676758	20.123486
1.8701172	16.947018
1.8725586	13.331141
1.875	11.489884
1.8774414	13.284749
1.8798828	16.69588
1.8823242	19.734982
1.8847656	22.119413
1.887207	23.760887
1.8896484	23.72053
1.8920898	20.765383
1.8945312	14.482884
1.8969727	5.6773705
1.8994141	4.231859
1.9018555	13.824407
1.9042969	22.760794
1.9067383	31.146832
1.9091797	38.786938
1.9116211	44.789097
1.9140625	48.12278
1.9165039	48.44563
1.9189453	46.4929
1.9213867	43.805637
1.9238281	41.98138
1.9262695	42.015163
1.9287109	44.19114
1.9311523	48.22672
1.9335938	53.295376
1.9360352	58.280552
1.9384766	62.36921
1.940918	65.524605
1.9433594	68.30233
1.9458008	71.05616
1.9482422	73.280716
1.9506836	73.89773
1.953125	72.13693
1.9555664	68.1609
1.9580078	63.01568
1.9604492	58.13775
1.9628906	54.778328
1.965332	53.58381
1.9677734	54.499363
1.9702148	56.954193
1.9726562	60.207222
1.9750977	63.661865
1.9775391	67.03896
1.9799805	70.32108
1.9824219	73.53712
1.9848633	76.59117
1.9873047	79.31734
1.9897461	81.6332
1.9921875	83.56739
1.9946289	85.15079
1.9970703	86.331505
1.9995117	87.02344
2.0019531	87.22761
2.0043945	87.06014
2.006836	86.668755
2.0092773	86.03965
2.0117188	84.87872
2.0141602	82.701904
2.0166016	79.190544
2.019043	74.53821
2.0214844	69.51932
2.0239258	65.08949
2.0263672	61.7462
2.0288086	59.167824
2.03125	56.513775
2.0336914	53.07002
2.0361328	48.68425
2.0385742	43.749897
2.0410156	38.788284
2.043457	33.933086
2.0458984	28.807686
2.0483398	22.989195
2.0507812	16.525234
2.0532227	10.006727
2.055664	4.262419
2.0581055	1.4362867
2.0605469	4.257355
2.0629883	6.874754
2.0654297	9.749779
2.067871	13.955393
2.0703125	19.855104
2.072754	26.736418
2.0751953	33.292908
2.0776367	38.294865
2.0800781	41.137455
2.0825195	42.08776
2.084961	42.09086
2.0874023	42.170296
2.0898438	42.80889
2.0922852	43.842777
2.0947266	44.858555
2.097168	45.608227
2.0996094	46.17282
2.1020508	46.925655
2.1044922	48.313065
2.1069336	50.46009
2.109375	52.834637
2.1118164	54.364372
2.1142578	54.032185
2.1166992	51.543957
2.1191406	47.604645
2.121582	43.48192
2.1240234	39.946877
2.1264648	36.515415
2.1289062	32.00732
2.1313477	25.692146
2.133789	17.80822
2.1362305	9.362937
2.1386719	2.4833755
2.1411133	6.3515534
2.1435547	12.003468
2.145996	17.725185
2.1484375	24.179827
2.150879	30.850817
2.1533203	36.268852
2.1557617	39.140312
2.1582031	39.19598
2.1606445	37.260464
2.163086	34.493084
2.1655273	31.468573
2.1679688	28.10112
2.1704102	24.381311
2.1728516	20.792612
2.175293	17.923626
2.1777344	15.94959
2.1801758	14.928916
2.1826172	15.351114
2.1850586	17.465162
2.1875	20.380653
2.1899414	22.742191
2.1923828	23.702648
2.1948242	23.383347
2.1972656	22.933216
2.199707	23.770496
2.2021484	26.03234
2.2045898	28.352468
2.2070312	29.319477
2.2094727	28.556911
2.211914	26.985796
2.2143555	26.288908
2.2167969	27.285902
2.2192383	28.836395
2.2216797	29.188814
2.224121	27.80602
2.2265625	26.101408
2.229004	26.461151
2.2314453	29.213114
2.2338867	32.06617
2.2363281	32.983807
2.2387695	31.656097
2.241211	29.229624
2.2436523	27.468048
2.2460938	27.783232
2.2485352	30.478798
2.2509766	34.688644
2.253418	39.032856
2.2558594	42.4471
2.2583008	44.80172
2.2607422	47.008057
2.2631836	50.235043
2.265625	54.642715
2.2680664	59.07046
2.2705078	62.11089
2.2729492	63.292908
2.2753906	63.401478
2.277832	63.721436
2.2802734	64.72303
2.2827148	65.56476
2.2851562	64.98674
2.2875977	62.423824
2.290039	58.333
2.2924805	53.82827
2.2949219	50.09512
2.2973633	47.9088
2.2998047	47.323997
2.302246	47.64912
2.3046875	47.852272
2.307129	47.147892
2.3095703	45.345573
2.3120117	42.768944
2.3144531	39.882572
2.3168945	36.940582
2.319336	33.952686
2.3217773	30.950499
2.3242188	28.232616
2.3266602	26.371805
2.3291016	25.992098
2.331543	27.40106
2.3339844	30.214186
2.3364258	33.303688
2.3388672	35.252937
2.3413086	35.12553
2.34375	33.19221
2.3461914	31.124495
2.3486328	30.751095
2.3510742	31.828009
2.3535156	32.242188
2.355957	30.390802
2.3583984	26.393793
2.3608398	21.907766
2.3632812	19.026333
2.3657227	18.223642
2.368164	17.842524
2.3706055	16.32766
2.3730469	13.406379
2.3754883	9.797737
2.3779297	6.6053762
2.380371	4.730704
2.3828125	4.775599
2.385254	6.8444943
2.3876953	9.875975
2.3901367	12.47206
2.3925781	13.573973
2.3950195	12.813908
2.397461	10.591692
2.3999023	7.8115377
2.4023438	5.556192
2.4047852	5.2696657
2.4072266	7.471633
2.409668	10.534837
2.4121094	12.935509
2.4145508	13.863753
2.4169922	13.453046
2.4194336	12.629175
2.421875	11.97872
2.4243164	10.749356
2.4267578	7.855998
2.4291992	4.092099
2.4316406	6.4123588
2.434082	12.235519
2.4365234	17.163937
2.4389648	20.924492
2.4414062	24.801558
2.4438477	29.79377
2.446289	35.11512
2.4487305	39.053665
2.4511719	40.557056
2.4536133	39.884373
2.4560547	38.15504
2.458496	36.22132
2.4609375	33.887062
