
X-Axis: Frequency (hz)
Y-Axis: Fourier Amplitude (cm/s)
Number of Data Sets: 4


DATASET #1

Name: FAS H1 (cm/s)
Num Points: 2044
Info: 

X, Y Data:
0.009765625	0.12168483
0.012207031	0.19550587
0.014648438	0.28952146
0.017089844	0.41351548
0.01953125	0.57797676
0.021972656	0.78482527
0.024414062	1.0286522
0.026855469	1.3028849
0.029296875	1.6056278
0.03173828	1.9355625
0.034179688	2.2826948
0.036621094	2.6244311
0.0390625	2.932126
0.041503906	3.18108
0.043945312	3.354194
0.04638672	3.4436874
0.048828125	3.4477172
0.05126953	3.3678038
0.053710938	3.2100809
0.056152344	2.9872189
0.05859375	2.7238176
0.061035156	2.4601603
0.06347656	2.2545469
0.06591797	2.1789923
0.068359375	2.2947626
0.07080078	2.6171937
0.07324219	3.110824
0.075683594	3.7199302
0.078125	4.395654
0.080566406	5.102878
0.08300781	5.814926
0.08544922	6.5043178
0.087890625	7.1342754
0.09033203	7.659327
0.09277344	8.033343
0.095214844	8.219002
0.09765625	8.193766
0.10009766	7.9493885
0.10253906	7.492825
0.10498047	6.852781
0.10742188	6.095772
0.10986328	5.3523498
0.11230469	4.832351
0.11474609	4.7605996
0.1171875	5.19409
0.11962891	5.959399
0.12207031	6.819682
0.12451172	7.596691
0.12695312	8.182487
0.12939453	8.523384
0.13183594	8.606042
0.13427734	8.4454155
0.13671875	8.077475
0.13916016	7.552828
0.14160156	6.928684
0.14404297	6.263485
0.14648438	5.609677
0.14892578	5.0044675
0.15136719	4.4653277
0.1538086	3.985684
0.15625	3.5316174
0.1586914	3.0453334
0.16113281	2.4558983
0.16357422	1.7097336
0.16601562	0.8382462
0.16845703	0.60341275
0.17089844	1.5532739
0.17333984	2.5042999
0.17578125	3.248121
0.17822266	3.7698324
0.18066406	4.201088
0.18310547	4.735129
0.18554688	5.4196258
0.18798828	6.0542545
0.19042969	6.318247
0.1928711	5.9467964
0.1953125	4.839553
0.1977539	3.1076488
0.20019531	1.1272367
0.20263672	1.2957546
0.20507812	2.8049023
0.20751953	3.6010194
0.20996094	3.4730399
0.21240234	2.5164478
0.21484375	1.4246798
0.21728516	2.23695
0.21972656	3.9249945
0.22216797	5.256177
0.22460938	6.0279093
0.22705078	6.567746
0.22949219	7.47793
0.2319336	8.901018
0.234375	10.250354
0.2368164	10.784387
0.23925781	10.10261
0.24169922	8.323984
0.24414062	6.045633
0.24658203	4.1186843
0.24902344	3.2087102
0.25146484	3.4499593
0.25390625	4.853348
0.25634766	6.998333
0.25878906	8.911698
0.26123047	9.590011
0.26367188	8.393206
0.26611328	5.3042803
0.2685547	1.4335492
0.2709961	4.1968484
0.2734375	7.783875
0.2758789	9.570107
0.2783203	9.45305
0.28076172	8.376834
0.28320312	7.6193676
0.28564453	6.999708
0.28808594	5.025759
0.29052734	1.3813454
0.29296875	5.164709
0.29541016	10.638243
0.29785156	14.082651
0.30029297	14.23092
0.30273438	11.219626
0.30517578	6.89315
0.3076172	5.1538296
0.3100586	6.655749
0.3125	7.691366
0.3149414	8.671895
0.3173828	10.857222
0.31982422	12.956068
0.32226562	13.014139
0.32470703	10.352348
0.32714844	5.911712
0.32958984	3.1728332
0.33203125	5.3574615
0.33447266	6.958628
0.33691406	7.177757
0.33935547	7.285268
0.34179688	7.720068
0.34423828	7.7652907
0.3466797	8.106453
0.3491211	10.865157
0.3515625	15.332024
0.3540039	18.927258
0.3564453	19.758532
0.35888672	17.267338
0.36132812	12.557703
0.36376953	8.825618
0.36621094	9.286235
0.36865234	10.78479
0.37109375	10.439027
0.37353516	9.116378
0.37597656	8.862622
0.37841797	8.797487
0.38085938	6.8136024
0.38330078	5.0069046
0.3857422	8.971434
0.3881836	13.537704
0.390625	14.973918
0.3930664	12.834757
0.3955078	9.06307
0.39794922	6.968545
0.40039062	6.90626
0.40283203	6.0177937
0.40527344	3.8213663
0.40771484	2.0379853
0.41015625	2.4616308
0.41259766	3.577011
0.41503906	4.7388606
0.41748047	5.0619435
0.41992188	3.635181
0.42236328	0.72044235
0.4248047	2.6462512
0.4272461	5.0776305
0.4296875	7.233574
0.4321289	10.40105
0.4345703	13.840861
0.43701172	15.944593
0.43945312	16.4052
0.44189453	16.216015
0.44433594	15.892663
0.44677734	14.673164
0.44921875	12.003011
0.45166016	8.585243
0.45410156	5.914863
0.45654297	4.7300596
0.45898438	4.69602
0.46142578	6.8450136
0.4638672	10.867237
0.4663086	14.720823
0.46875	16.876667
0.4711914	17.009796
0.4736328	15.842811
0.47607422	14.086655
0.47851562	11.816867
0.48095703	9.814423
0.48339844	10.323294
0.48583984	12.825149
0.48828125	14.728321
0.49072266	15.314425
0.49316406	14.911991
0.49560547	13.336627
0.49804688	10.448639
0.5004883	7.6707654
0.5029297	7.6117344
0.5053711	9.975614
0.5078125	12.666126
0.5102539	14.386588
0.5126953	14.555613
0.5151367	13.762985
0.5175781	13.040766
0.52001953	12.384992
0.52246094	11.316853
0.52490234	9.932426
0.52734375	8.321414
0.52978516	6.313705
0.53222656	4.1303234
0.53466797	2.2597537
0.5371094	2.11265
0.5395508	4.2708454
0.5419922	6.687504
0.5444336	8.896315
0.546875	10.821237
0.5493164	12.169392
0.5517578	12.868897
0.5541992	13.014169
0.5566406	12.361345
0.55908203	10.881268
0.56152344	9.200335
0.56396484	8.21127
0.56640625	8.761315
0.56884766	10.223312
0.57128906	11.05864
0.57373047	10.804523
0.5761719	9.843778
0.5786133	8.792103
0.5810547	8.524451
0.5834961	9.222803
0.5859375	10.153461
0.5883789	10.825152
0.5908203	10.959454
0.5932617	10.377361
0.5957031	9.196243
0.59814453	7.689497
0.60058594	6.091092
0.60302734	4.6014814
0.60546875	3.2922113
0.60791016	1.9956836
0.61035156	0.56155825
0.61279297	1.1967582
0.6152344	3.1667335
0.6176758	5.389909
0.6201172	7.638484
0.6225586	9.733198
0.625	11.527433
0.6274414	12.87999
0.6298828	13.898083
0.6323242	14.900689
0.6347656	16.01099
0.63720703	16.891703
0.63964844	16.948395
0.64208984	15.769053
0.64453125	13.267497
0.64697266	9.717858
0.64941406	5.8712287
0.65185547	3.0381618
0.6542969	2.7807987
0.6567383	3.3390212
0.6591797	3.5051856
0.6616211	4.424267
0.6640625	6.4538846
0.6665039	8.483378
0.6689453	9.629506
0.6713867	9.544689
0.6738281	8.44295
0.67626953	7.1911592
0.67871094	7.002412
0.68115234	8.20661
0.68359375	10.042057
0.68603516	11.861328
0.68847656	13.348048
0.69091797	14.142001
0.6933594	13.789354
0.6958008	12.117431
0.6982422	9.613356
0.7006836	7.768869
0.703125	8.363864
0.7055664	10.641699
0.7080078	12.854457
0.7104492	14.273207
0.7128906	14.777704
0.71533203	14.363714
0.71777344	12.906796
0.72021484	10.328154
0.72265625	7.3104467
0.72509766	6.679924
0.72753906	10.094973
0.72998047	14.554408
0.7324219	18.28098
0.7348633	20.676176
0.7373047	21.74789
0.7397461	21.96465
0.7421875	21.92499
0.7446289	21.86212
0.7470703	21.446363
0.7495117	20.182087
0.7519531	17.861134
0.75439453	14.711414
0.75683594	11.376143
0.75927734	8.785323
0.76171875	7.827952
0.76416016	8.659118
0.76660156	10.847552
0.76904297	14.164635
0.7714844	18.394234
0.7739258	23.009596
0.7763672	27.272198
0.7788086	30.465221
0.78125	32.116676
0.7836914	32.103085
0.7861328	30.637928
0.7885742	28.241581
0.7910156	25.524673
0.79345703	22.85429
0.79589844	20.155455
0.79833984	17.084717
0.80078125	13.550852
0.80322266	10.05371
0.80566406	7.6978316
0.80810547	7.0953546
0.8105469	7.041234
0.8129883	6.2897167
0.8154297	4.73426
0.8178711	3.2077181
0.8203125	3.1804216
0.8227539	4.5907545
0.8251953	6.4052143
0.8276367	8.345285
0.8300781	10.246418
0.83251953	11.89711
0.83496094	13.194096
0.83740234	14.290415
0.83984375	15.527912
0.84228516	17.10209
0.84472656	18.81686
0.84716797	20.19379
0.8496094	20.762947
0.8520508	20.323977
0.8544922	19.063118
0.8569336	17.4921
0.859375	16.283184
0.8618164	15.969851
0.8642578	16.675991
0.8666992	18.04532
0.8691406	19.28942
0.87158203	19.473856
0.87402344	17.924208
0.87646484	14.578562
0.87890625	10.174232
0.88134766	6.480076
0.88378906	6.186412
0.88623047	8.035084
0.8886719	9.269353
0.8911133	9.510538
0.8935547	9.513248
0.8959961	10.04624
0.8984375	10.993854
0.9008789	11.722702
0.9033203	11.798679
0.9057617	11.142559
0.9082031	9.915994
0.91064453	8.331773
0.91308594	6.5989604
0.91552734	4.92938
0.91796875	3.5870075
0.92041016	2.8828795
0.92285156	2.914139
0.92529297	3.6398551
0.9277344	5.0438967
0.9301758	6.827964
0.9326172	8.55027
0.9350586	9.944013
0.9375	10.999793
0.9399414	11.85603
0.9423828	12.60028
0.9448242	13.241433
0.9472656	13.994086
0.94970703	15.429838
0.95214844	17.988232
0.95458984	21.41084
0.95703125	24.89694
0.95947266	27.684362
0.96191406	29.392052
0.96435547	29.949387
0.9667969	29.381111
0.9692383	27.685238
0.9716797	25.030603
0.9741211	22.056845
0.9765625	19.842588
0.9790039	19.363564
0.9814453	20.762077
0.9838867	23.474497
0.9863281	26.700794
0.98876953	29.49492
0.99121094	30.915174
0.99365234	30.403055
0.99609375	28.139126
0.99853516	25.116014
1.0009766	22.78305
1.003418	22.028015
1.0058594	22.2964
1.0083008	22.312328
1.0107422	21.39141
1.0131836	19.947948
1.015625	19.159252
1.0180664	19.83669
1.0205078	21.441355
1.0229492	22.809824
1.0253906	23.186802
1.027832	22.415321
1.0302734	20.714262
1.0327148	18.396246
1.0351562	15.735372
1.0375977	12.898033
1.0400391	9.9436655
1.0424805	6.9118757
1.0449219	3.9938025
1.0473633	2.6717794
1.0498047	4.9996376
1.0522461	8.531305
1.0546875	12.239212
1.0571289	15.739169
1.0595703	18.743338
1.0620117	21.053905
1.0644531	22.569483
1.0668945	23.219393
1.0693359	23.00502
1.0717773	22.088238
1.0742188	20.829603
1.0766602	19.716587
1.0791016	19.03489
1.081543	18.665419
1.0839844	18.332794
1.0864258	18.059774
1.0888672	18.366098
1.0913086	19.75453
1.09375	22.046658
1.0961914	24.456486
1.0986328	26.123123
1.1010742	26.493893
1.1035156	25.388807
1.105957	22.966732
1.1083984	19.667887
1.1108398	16.11233
1.1132812	13.084972
1.1157227	11.490691
1.1181641	11.976491
1.1206055	14.315419
1.1230469	17.65878
1.1254883	21.107077
1.1279297	23.881346
1.1303711	25.528563
1.1328125	26.124321
1.1352539	26.21066
1.1376953	26.385382
1.1401367	26.828257
1.1425781	27.283422
1.1450195	27.478708
1.1474609	27.340117
1.1499023	26.845243
1.1523438	25.796064
1.1547852	23.848455
1.1572266	20.78656
1.159668	16.713615
1.1621094	12.014607
1.1645508	7.1383367
1.1669922	2.439238
1.1694336	2.8677866
1.171875	7.540115
1.1743164	12.055314
1.1767578	15.791649
1.1791992	18.12419
1.1816406	18.665209
1.184082	17.407782
1.1865234	14.745702
1.1889648	11.28976
1.1914062	7.624536
1.1938477	4.2686114
1.1962891	1.8182753
1.1987305	1.8574684
1.2011719	3.169784
1.2036133	4.5759883
1.2060547	6.2819586
1.2084961	8.36594
1.2109375	10.616686
1.2133789	12.875022
1.2158203	15.052327
1.2182617	16.918829
1.2207031	18.170645
1.2231445	18.430815
1.2255859	17.606722
1.2280273	15.997821
1.2304688	14.04778
1.2329102	12.160079
1.2353516	10.374619
1.237793	8.934051
1.2402344	8.701457
1.2426758	10.14027
1.2451172	12.3595
1.2475586	14.133576
1.25	14.901
1.2524414	14.52567
1.2548828	13.179146
1.2573242	11.222095
1.2597656	9.000306
1.262207	7.018547
1.2646484	5.836067
1.2670898	5.803169
1.2695312	6.6921215
1.2719727	7.8668027
1.2744141	8.916417
1.2768555	9.495862
1.2792969	9.291085
1.2817383	8.165986
1.2841797	6.1152945
1.2866211	3.4982607
1.2890625	2.3841715
1.2915039	5.0218987
1.2939453	8.364987
1.2963867	11.594693
1.2988281	14.568823
1.3012695	17.165682
1.3037109	19.307434
1.3061523	20.827812
1.3085938	21.567913
1.3110352	21.437965
1.3134766	20.388775
1.315918	18.599152
1.3183594	16.414566
1.3208008	14.306965
1.3232422	12.685117
1.3256836	11.533371
1.328125	10.652946
1.3305664	10.098368
1.3330078	10.515454
1.3354492	12.330475
1.3378906	14.95434
1.340332	17.417095
1.3427734	19.013008
1.3452148	19.663746
1.3476562	19.832226
1.3500977	20.278273
1.3525391	21.428015
1.3549805	22.978748
1.3574219	24.305937
1.3598633	24.843203
1.3623047	24.366041
1.3647461	22.957954
1.3671875	20.955208
1.3696289	18.858902
1.3720703	16.984198
1.3745117	15.254017
1.3769531	13.186698
1.3793945	10.281966
1.3818359	6.384677
1.3842773	1.8294538
1.3867188	3.563235
1.3891602	8.223614
1.3916016	12.121418
1.394043	14.875812
1.3964844	16.400177
1.3989258	16.800396
1.4013672	16.309504
1.4038086	15.283802
1.40625	14.220293
1.4086914	13.774398
1.4111328	14.405377
1.4135742	15.936867
1.4160156	17.75323
1.418457	19.26106
1.4208984	20.105795
1.4233398	20.18168
1.4257812	19.564867
1.4282227	18.471682
1.4306641	17.117365
1.4331055	15.607673
1.4355469	13.893012
1.4379883	11.806203
1.4404297	9.279593
1.4428711	6.438847
1.4453125	3.7488966
1.4477539	2.2981963
1.4501953	2.744845
1.4526367	3.210949
1.4550781	2.7900772
1.4575195	1.714434
1.4599609	2.317351
1.4624023	5.1430783
1.4648438	8.620812
1.4672852	12.271867
1.4697266	15.761082
1.472168	18.83344
1.4746094	21.299765
1.4770508	23.061537
1.4794922	24.140913
1.4819336	24.621641
1.484375	24.644165
1.4868164	24.362717
1.4892578	23.90375
1.4916992	23.378702
1.4941406	22.852034
1.496582	22.305944
1.4990234	21.668852
1.5014648	20.836311
1.5039062	19.730322
1.5063477	18.342966
1.5087891	16.712244
1.5112305	14.934668
1.5136719	13.174006
1.5161133	11.6321
1.5185547	10.518984
1.5209961	9.934325
1.5234375	9.7406
1.5258789	9.66976
1.5283203	9.517076
1.5307617	9.1899395
1.5332031	8.733741
1.5356445	8.284767
1.5380859	7.977692
1.5405273	8.034179
1.5429688	8.681576
1.5454102	10.018338
1.5478516	11.999633
1.550293	14.37047
1.5527344	16.86535
1.5551758	19.19886
1.5576172	21.091759
1.5600586	22.381552
1.5625	22.956038
1.5649414	22.893358
1.5673828	22.385265
1.5698242	21.636915
1.5722656	20.822186
1.574707	19.893726
1.5771484	18.753565
1.5795898	17.281948
1.5820312	15.474176
1.5844727	13.483829
1.5869141	11.468097
1.5893555	9.693595
1.5917969	8.559694
1.5942383	8.86475
1.5966797	11.034585
1.5991211	14.575519
1.6015625	18.70355
1.6040039	22.794443
1.6064453	26.44247
1.6088867	29.348495
1.6113281	31.380905
1.6137695	32.444885
1.6162109	32.504524
1.6186523	31.56082
1.6210938	29.639559
1.6235352	26.914042
1.6259766	23.707588
1.628418	20.614754
1.6308594	18.41557
1.6333008	17.746567
1.6357422	18.582384
1.6381836	20.21285
1.640625	21.861876
1.6430664	22.94158
1.6455078	23.131514
1.6479492	22.300743
1.6503906	20.544418
1.652832	18.260452
1.6552734	16.102423
1.6577148	14.881102
1.6601562	14.953552
1.6625977	15.971153
1.6650391	17.339952
1.6674805	18.787067
1.6699219	20.387142
1.6723633	22.205345
1.6748047	24.11773
1.6772461	25.740934
1.6796875	26.69482
1.6821289	26.739431
1.6845703	25.8525
1.6870117	24.244024
1.6894531	22.2176
1.6918945	20.13472
1.6943359	18.280333
1.6967773	16.828556
1.6992188	15.858952
1.7016602	15.362214
1.7041016	15.311938
1.706543	15.644437
1.7089844	16.228565
1.7114258	16.86744
1.7138672	17.295645
1.7163086	17.230421
1.71875	16.455603
1.7211914	14.844568
1.7236328	12.385241
1.7260742	9.165013
1.7285156	5.3383155
1.730957	1.5360074
1.7333984	4.1198554
1.7358398	8.837423
1.7382812	13.575568
1.7407227	18.10035
1.7431641	22.252077
1.7456055	25.952616
1.7480469	29.21995
1.7504883	32.088585
1.7529297	34.581287
1.7553711	36.625755
1.7578125	38.0606
1.7602539	38.738194
1.7626953	38.56267
1.7651367	37.624954
1.7675781	36.216785
1.7700195	34.77641
1.7724609	33.829365
1.7749023	33.697083
1.7773438	34.41203
1.7797852	35.717102
1.7822266	37.224705
1.784668	38.610886
1.7871094	39.566254
1.7895508	39.872402
1.7919922	39.350372
1.7944336	37.87097
1.796875	35.473843
1.7993164	32.29886
1.8017578	28.688833
1.8041992	25.1446
1.8066406	22.189993
1.809082	20.29873
1.8115234	19.488028
1.8139648	19.436394
1.8164062	19.638426
1.8188477	19.692633
1.8212891	19.45893
1.8237305	18.854712
1.8261719	17.957834
1.8286133	16.84353
1.8310547	15.575933
1.8334961	14.276684
1.8359375	12.989461
1.8383789	11.803489
1.8408203	10.800735
1.8432617	10.014095
1.8457031	9.515271
1.8481445	9.301909
1.8505859	9.357282
1.8530273	9.641402
1.8554688	10.035055
1.8579102	10.41839
1.8603516	10.633332
1.862793	10.533055
1.8652344	10.06601
1.8676758	9.249421
1.8701172	8.207084
1.8725586	7.1517487
1.875	6.252807
1.8774414	5.6032033
1.8798828	5.129416
1.8823242	4.659037
1.8847656	4.0569263
1.887207	3.2378147
1.8896484	2.216546
1.8920898	1.0676222
1.8945312	0.39416853
1.8969727	1.438838
1.8994141	2.4674792
1.9018555	3.3090959
1.9042969	3.9266746
1.9067383	4.33773
1.9091797	4.6111493
1.9116211	4.883393
1.9140625	5.3394003
1.9165039	6.1276445
1.9189453	7.3144836
1.9213867	8.868161
1.9238281	10.695072
1.9262695	12.694765
1.9287109	14.710632
1.9311523	16.598122
1.9335938	18.243681
1.9360352	19.540731
1.9384766	20.482561
1.940918	21.087248
1.9433594	21.408718
1.9458008	21.543161
1.9482422	21.535398
1.9506836	21.441267
1.953125	21.269989
1.9555664	20.998734
1.9580078	20.642927
1.9604492	20.237555
1.9628906	19.920237
1.965332	19.828579
1.9677734	20.011868
1.9702148	20.366907
1.9726562	20.61713
1.9750977	20.519339
1.9775391	19.951868
1.9799805	19.009619
1.9824219	17.993292
1.9848633	17.237238
1.9873047	17.003662
1.9897461	17.302313
1.9921875	18.003128
1.9946289	18.95903
1.9970703	20.027815
1.9995117	21.092129
2.0019531	21.97753
2.0043945	22.55565
2.006836	22.726751
2.0092773	22.454239
2.0117188	21.770813
2.0141602	20.694567
2.0166016	19.293592
2.019043	17.666828
2.0214844	16.010166
2.0239258	14.676184
2.0263672	14.050108
2.0288086	14.411131
2.03125	15.607421
2.0336914	17.229456
2.0361328	18.811024
2.0385742	19.996086
2.0410156	20.597488
2.043457	20.51612
2.0458984	19.804295
2.0483398	18.593124
2.0507812	17.084694
2.0532227	15.544785
2.055664	14.203591
2.0581055	13.230892
2.0605469	12.648197
2.0629883	12.353943
2.0654297	12.219277
2.067871	12.166329
2.0703125	12.213403
2.072754	12.409447
2.0751953	12.750058
2.0776367	13.142876
2.0800781	13.432154
2.0825195	13.471528
2.084961	13.183538
2.0874023	12.560113
2.0898438	11.691157
2.0922852	10.753635
2.0947266	10.011688
2.097168	9.752393
2.0996094	10.105081
2.1020508	10.976146
2.1044922	12.11594
2.1069336	13.30732
2.109375	14.428511
2.1118164	15.40677
2.1142578	16.204159
2.1166992	16.755571
2.1191406	16.993439
2.121582	16.895088
2.1240234	16.475397
2.1264648	15.824684
2.1289062	15.061193
2.1313477	14.281333
2.133789	13.557142
2.1362305	12.885439
2.1386719	12.259254
2.1411133	11.659402
2.1435547	11.078028
2.145996	10.564243
2.1484375	10.143028
2.150879	9.890526
2.1533203	9.828681
2.1557617	9.946313
2.1582031	10.226765
2.1606445	10.573161
2.163086	10.927961
2.1655273	11.196893
2.1679688	11.292684
2.1704102	11.198359
2.1728516	10.897328
2.175293	10.503712
2.1777344	10.164268
2.1801758	10.023926
2.1826172	10.181511
2.1850586	10.535805
2.1875	10.951926
2.1899414	11.251268
2.1923828	11.324514
2.1948242	11.176476
2.1972656	10.846396
2.199707	10.495068
2.2021484	10.271999
2.2045898	10.307982
2.2070312	10.659542
2.2094727	11.22919
2.211914	11.920935
2.2143555	12.565559
2.2167969	13.070234
2.2192383	13.361145
2.2216797	13.370969
2.224121	13.120247
2.2265625	12.588779
2.229004	11.843142
2.2314453	10.978851
2.2338867	10.092515
2.2363281	9.356801
2.2387695	8.884229
2.241211	8.759095
2.2436523	9.01111
2.2460938	9.569963
2.2485352	10.389208
2.2509766	11.399218
2.253418	12.542356
2.2558594	13.785713
2.2583008	15.068764
2.2607422	16.340845
2.2631836	17.518812
2.265625	18.520227
2.2680664	19.274155
2.2705078	19.744087
2.2729492	19.934267
2.2753906	19.8857
2.277832	19.64317
2.2802734	19.25137
2.2827148	18.753992
2.2851562	18.200962
2.2875977	17.680035
2.290039	17.26344
2.2924805	16.984467
2.2949219	16.799967
2.2973633	16.587704
2.2998047	16.251165
2.302246	15.708344
2.3046875	14.970184
2.307129	14.061026
2.3095703	13.00544
2.3120117	11.815074
2.3144531	10.462732
2.3168945	8.971678
2.319336	7.396556
2.3217773	5.872413
2.3242188	4.577332
2.3266602	3.6745224
2.3291016	3.2265282
2.331543	3.1050813
2.3339844	3.1540256
2.3364258	3.2807229
2.3388672	3.4641883
2.3413086	3.669692
2.34375	3.8587334
2.3461914	4.017468
2.3486328	4.1745257
2.3510742	4.403467
2.3535156	4.7686143
2.355957	5.2781205
2.3583984	5.8748875
2.3608398	6.4600945
2.3632812	6.9392805
2.3657227	7.24691
2.368164	7.354518
2.3706055	7.2743607
2.3730469	7.0510316
2.3754883	6.7529445
2.3779297	6.4600434
2.380371	6.2504935
2.3828125	6.1726165
2.385254	6.2452154
2.3876953	6.4205174
2.3901367	6.6282024
2.3925781	6.7678475
2.3950195	6.754089
2.397461	6.528749
2.3999023	6.0531526
2.4023438	5.3457465
2.4047852	4.4537077
2.4072266	3.4760199
2.409668	2.586735
2.4121094	2.0715215
2.4145508	2.2229607
2.4169922	2.8383677
2.4194336	3.6140075
2.421875	4.3868165
2.4243164	5.1166115
2.4267578	5.769808
2.4291992	6.3170834
2.4316406	6.73931
2.434082	7.0168943
2.4365234	7.160174
2.4389648	7.1903696
2.4414062	7.1227098
2.4438477	6.976324
2.446289	6.745679
2.4487305	6.4445405
2.4511719	6.104233
