
X-Axis: Frequency (hz)
Y-Axis: Fourier Amplitude (cm/s)
Number of Data Sets: 4


DATASET #1

Name: FAS H1 (cm/s)
Num Points: 2044
Info: 

X, Y Data:
0.009765625	0.16084865
0.012207031	0.21911545
0.014648438	0.29580978
0.017089844	0.40057987
0.01953125	0.544702
0.021972656	0.7393071
0.024414062	0.99414676
0.026855469	1.3170855
0.029296875	1.7134403
0.03173828	2.1851294
0.034179688	2.7303598
0.036621094	3.3440726
0.0390625	4.018869
0.041503906	4.7460055
0.043945312	5.516274
0.04638672	6.320906
0.048828125	7.152123
0.05126953	8.003706
0.053710938	8.871368
0.056152344	9.752474
0.05859375	10.645401
0.061035156	11.548967
0.06347656	12.462223
0.06591797	13.384152
0.068359375	14.312907
0.07080078	15.245416
0.07324219	16.177721
0.075683594	17.105547
0.078125	18.024483
0.080566406	18.929453
0.08300781	19.814156
0.08544922	20.671434
0.087890625	21.49429
0.09033203	22.277185
0.09277344	23.0167
0.095214844	23.712141
0.09765625	24.36617
0.10009766	24.985197
0.10253906	25.579123
0.10498047	26.159988
0.10742188	26.740278
0.10986328	27.331131
0.11230469	27.940842
0.11474609	28.57399
0.1171875	29.23102
0.11962891	29.908495
0.12207031	30.600327
0.12451172	31.299921
0.12695312	32.00271
0.12939453	32.707905
0.13183594	33.418053
0.13427734	34.13609
0.13671875	34.86029
0.13916016	35.57885
0.14160156	36.265915
0.14404297	36.88097
0.14648438	37.371986
0.14892578	37.682278
0.15136719	37.759834
0.1538086	37.567482
0.15625	37.09205
0.1586914	36.35005
0.16113281	35.38955
0.16357422	34.28744
0.16601562	33.144398
0.16845703	32.078922
0.17089844	31.220709
0.17333984	30.701466
0.17578125	30.640676
0.17822266	31.126896
0.18066406	32.201035
0.18310547	33.85036
0.18554688	36.01751
0.18798828	38.618916
0.19042969	41.56212
0.1928711	44.75434
0.1953125	48.1008
0.1977539	51.49689
0.20019531	54.81985
0.20263672	57.925728
0.20507812	60.655613
0.20751953	62.852
0.20996094	64.38264
0.21240234	65.16595
0.21484375	65.19064
0.21728516	64.52404
0.21972656	63.307575
0.22216797	61.741653
0.22460938	60.064507
0.22705078	58.527946
0.22949219	57.37082
0.2319336	56.791237
0.234375	56.921543
0.2368164	57.814396
0.23925781	59.446384
0.24169922	61.738064
0.24414062	64.57995
0.24658203	67.85171
0.24902344	71.427574
0.25146484	75.16835
0.25390625	78.9069
0.25634766	82.43559
0.25878906	85.50361
0.26123047	87.8286
0.26367188	89.1253
0.26611328	89.148186
0.2685547	87.741844
0.2709961	84.889114
0.2734375	80.74738
0.2758789	75.66784
0.2783203	70.19761
0.28076172	65.06304
0.28320312	61.11209
0.28564453	59.160892
0.28808594	59.722786
0.29052734	62.76811
0.29296875	67.74686
0.29541016	73.845116
0.29785156	80.235825
0.30029297	86.20457
0.30273438	91.18411
0.30517578	94.7506
0.3076172	96.61056
0.3100586	96.592636
0.3125	94.65897
0.3149414	90.94873
0.3173828	85.85856
0.31982422	80.14296
0.32226562	74.96595
0.32470703	71.74294
0.32714844	71.5949
0.32958984	74.63407
0.33203125	79.81057
0.33447266	85.49371
0.33691406	90.1166
0.33935547	92.48014
0.34179688	91.81373
0.34423828	87.75871
0.3466797	80.36061
0.3491211	70.11024
0.3515625	58.087616
0.3540039	46.331585
0.3564453	38.44223
0.35888672	38.435375
0.36132812	45.69381
0.36376953	55.714703
0.36621094	65.05626
0.36865234	71.90528
0.37109375	75.35892
0.37353516	75.02469
0.37597656	70.86034
0.37841797	63.150494
0.38085938	52.598236
0.38330078	40.59716
0.3857422	30.009277
0.3881836	26.243294
0.390625	32.01546
0.3930664	42.110092
0.3955078	51.984097
0.39794922	59.68509
0.40039062	64.44806
0.40283203	66.118614
0.40527344	64.99021
0.40771484	61.763718
0.41015625	57.48625
0.41259766	53.342373
0.41503906	50.23125
0.41748047	48.316067
0.41992188	46.98949
0.42236328	45.367023
0.4248047	42.863243
0.4272461	39.51263
0.4296875	36.06228
0.4321289	33.84168
0.4345703	34.105587
0.43701172	36.952087
0.43945312	41.160286
0.44189453	45.119743
0.44433594	47.499893
0.44677734	47.39322
0.44921875	44.29281
0.45166016	38.07696
0.45410156	29.063852
0.45654297	18.407671
0.45898438	11.394439
0.46142578	18.942038
0.4638672	32.507725
0.4663086	45.992935
0.46875	57.420315
0.4711914	65.52606
0.4736328	69.451965
0.47607422	68.80503
0.47851562	63.71483
0.48095703	54.814987
0.48339844	43.17416
0.48583984	30.317616
0.48828125	18.895044
0.49072266	15.153775
0.49316406	21.36207
0.49560547	29.373945
0.49804688	35.335857
0.5004883	38.242695
0.5029297	38.120403
0.5053711	35.628033
0.5078125	31.851448
0.5102539	28.121273
0.5126953	25.849974
0.5151367	26.183136
0.5175781	29.354769
0.52001953	34.55935
0.52246094	40.559082
0.52490234	46.143135
0.52734375	50.30022
0.52978516	52.345924
0.53222656	52.064213
0.53466797	49.8035
0.5371094	46.428543
0.5395508	43.04386
0.5419922	40.53077
0.5444336	39.165207
0.546875	38.60008
0.5493164	38.100456
0.5517578	36.766045
0.5541992	33.786427
0.5566406	28.82141
0.55908203	22.368273
0.56152344	15.975722
0.56396484	12.238373
0.56640625	12.94997
0.56884766	16.768139
0.57128906	22.823875
0.57373047	31.119465
0.5761719	40.784023
0.5786133	50.114998
0.5810547	57.31874
0.5834961	61.1085
0.5859375	61.09604
0.5883789	58.007137
0.5908203	53.658943
0.5932617	50.44099
0.5957031	50.005745
0.59814453	52.032642
0.60058594	54.78771
0.60302734	56.67853
0.60546875	57.039345
0.60791016	56.17194
0.61035156	55.144936
0.61279297	55.368923
0.6152344	57.75659
0.6176758	61.904964
0.6201172	66.22342
0.6225586	68.87147
0.625	68.62818
0.6274414	65.343254
0.6298828	60.014954
0.6323242	54.519318
0.6347656	50.865337
0.63720703	49.99926
0.63964844	51.15669
0.64208984	52.68644
0.64453125	53.26312
0.64697266	52.403667
0.64941406	50.457928
0.65185547	48.34205
0.6542969	46.98233
0.6567383	46.58093
0.6591797	46.320538
0.6616211	44.87303
0.6640625	41.18106
0.6665039	34.97149
0.6689453	26.981112
0.6713867	19.058939
0.6738281	14.050071
0.67626953	13.384887
0.67871094	14.26322
0.68115234	14.58556
0.68359375	15.183836
0.68603516	17.505928
0.68847656	21.251225
0.69091797	25.28772
0.6933594	29.326038
0.6958008	34.030483
0.6982422	40.1119
0.7006836	47.42976
0.703125	55.02565
0.7055664	61.826015
0.7080078	67.25346
0.7104492	71.418724
0.7128906	74.88241
0.71533203	78.16739
0.71777344	81.372505
0.72021484	84.16389
0.72265625	86.07727
0.72509766	86.83626
0.72753906	86.44398
0.72998047	84.99517
0.7324219	82.39238
0.7348633	78.28315
0.7373047	72.33551
0.7397461	64.59967
0.7421875	55.651165
0.7446289	46.507202
0.7470703	38.523716
0.7495117	33.273354
0.7519531	31.844664
0.75439453	33.675087
0.75683594	36.898624
0.75927734	39.75751
0.76171875	41.137966
0.76416016	40.52695
0.76660156	37.93498
0.76904297	33.81564
0.7714844	28.940508
0.7739258	24.254448
0.7763672	20.745052
0.7788086	19.293158
0.78125	20.396297
0.7836914	23.9551
0.7861328	29.502918
0.7885742	36.508892
0.7910156	44.397724
0.79345703	52.473476
0.79589844	59.9656
0.79833984	66.221466
0.80078125	70.90862
0.80322266	74.08263
0.80566406	76.08627
0.80810547	77.35813
0.8105469	78.25947
0.8129883	78.97552
0.8154297	79.47863
0.8178711	79.5371
0.8203125	78.7913
0.8227539	76.91278
0.8251953	73.79472
0.8276367	69.68605
0.8300781	65.21488
0.83251953	61.28184
0.83496094	58.792843
0.83740234	58.248844
0.83984375	59.42671
0.84228516	61.46122
0.84472656	63.254215
0.84716797	63.870537
0.8496094	62.76267
0.8520508	59.8397
0.8544922	55.399002
0.8569336	49.93822
0.859375	43.91467
0.8618164	37.5741
0.8642578	30.948832
0.8666992	24.04033
0.8691406	17.18945
0.87158203	12.03308
0.87402344	12.620308
0.87646484	18.921162
0.87890625	27.173903
0.88134766	35.743103
0.88378906	44.06424
0.88623047	51.95755
0.8886719	59.44849
0.8911133	66.67624
0.8935547	73.80948
0.8959961	80.97014
0.8984375	88.17626
0.9008789	95.31024
0.9033203	102.10902
0.9057617	108.16951
0.9082031	112.98251
0.91064453	116.02303
0.91308594	116.90122
0.91552734	115.52449
0.91796875	112.18937
0.92041016	107.54306
0.92285156	102.40424
0.92529297	97.49482
0.9277344	93.19261
0.9301758	89.44272
0.9326172	85.88234
0.9350586	82.08916
0.9375	77.79552
0.9399414	72.96857
0.9423828	67.74214
0.9448242	62.250828
0.9472656	56.47487
0.94970703	50.20981
0.95214844	43.195774
0.95458984	35.34024
0.95703125	26.987133
0.95947266	19.423061
0.96191406	15.924025
0.96435547	19.259735
0.9667969	26.170868
0.9692383	33.17409
0.9716797	38.73503
0.9741211	42.2305
0.9765625	43.55378
0.9790039	42.999214
0.9814453	41.199432
0.9838867	39.058975
0.9863281	37.62305
0.98876953	37.792526
0.99121094	39.954433
0.99365234	43.856567
0.99609375	48.83593
0.99853516	54.084053
1.0009766	58.773422
1.003418	62.136086
1.0058594	63.577354
1.0083008	62.79892
1.0107422	59.867447
1.0131836	55.189743
1.015625	49.40901
1.0180664	43.266846
1.0205078	37.470413
1.0229492	32.575703
1.0253906	28.881687
1.027832	26.35642
1.0302734	24.66391
1.0327148	23.327723
1.0351562	21.939983
1.0375977	20.30923
1.0400391	18.526886
1.0424805	16.979668
1.0449219	16.277441
1.0473633	16.968067
1.0498047	19.13306
1.0522461	22.36942
1.0546875	26.118696
1.0571289	29.877806
1.0595703	33.249207
1.0620117	35.953457
1.0644531	37.849342
1.0668945	38.962975
1.0693359	39.512283
1.0717773	39.88668
1.0742188	40.52317
1.0766602	41.6911
1.0791016	43.33597
1.081543	45.142708
1.0839844	46.770195
1.0864258	48.068336
1.0888672	49.162064
1.0913086	50.410683
1.09375	52.29817
1.0961914	55.301132
1.0986328	59.75734
1.1010742	65.745415
1.1035156	73.00786
1.105957	80.95871
1.1083984	88.78836
1.1108398	95.626755
1.1132812	100.70185
1.1157227	103.4436
1.1181641	103.5278
1.1206055	100.88527
1.1230469	95.71503
1.1254883	88.52459
1.1279297	80.1891
1.1303711	71.979515
1.1328125	65.43021
1.1352539	61.85991
1.1376953	61.63562
1.1401367	63.90598
1.1425781	67.214386
1.1450195	70.24582
1.1474609	72.10978
1.1499023	72.29911
1.1523438	70.58403
1.1547852	66.93966
1.1572266	61.521923
1.159668	54.681606
1.1621094	47.028763
1.1645508	39.555935
1.1669922	33.76335
1.1694336	31.359127
1.171875	32.93629
1.1743164	37.182377
1.1767578	42.198914
1.1791992	46.62138
1.1816406	49.719078
1.184082	51.27552
1.1865234	51.52265
1.1889648	51.073013
1.1914062	50.76792
1.1938477	51.41303
1.1962891	53.486286
1.1987305	56.993855
1.2011719	61.575874
1.2036133	66.73737
1.2060547	72.03409
1.2084961	77.14536
1.2109375	81.87033
1.2133789	86.11369
1.2158203	89.90037
1.2182617	93.39668
1.2207031	96.88029
1.2231445	100.63277
1.2255859	104.80055
1.2280273	109.30726
1.2304688	113.87074
1.2329102	118.11217
1.2353516	121.69733
1.237793	124.435
1.2402344	126.28817
1.2426758	127.29802
1.2451172	127.47612
1.2475586	126.73625
1.25	124.90252
1.2524414	121.77634
1.2548828	117.20959
1.2573242	111.1475
1.2597656	103.6368
1.262207	94.81378
1.2646484	84.8886
1.2670898	74.126495
1.2695312	62.814995
1.2719727	51.20571
1.2744141	39.43978
1.2768555	27.506737
1.2792969	15.354974
1.2817383	4.68612
1.2841797	12.682981
1.2866211	26.231293
1.2890625	39.933292
1.2915039	53.020657
1.2939453	64.995384
1.2963867	75.604515
1.2988281	84.84182
1.3012695	92.87088
1.3037109	99.92198
1.3061523	106.23631
1.3085938	112.07784
1.3110352	117.75812
1.3134766	123.59867
1.315918	129.8104
1.3183594	136.356
1.3208008	142.8953
1.3232422	148.859
1.3256836	153.6084
1.328125	156.58992
1.3305664	157.42982
1.3330078	155.96709
1.3354492	152.25183
1.3378906	146.53168
1.340332	139.22118
1.3427734	130.84302
1.3452148	121.93624
1.3476562	112.94342
1.3500977	104.11711
1.3525391	95.48806
1.3549805	86.9203
1.3574219	78.235306
1.3598633	69.35447
1.3623047	60.42367
1.3647461	51.921017
1.3671875	44.75975
1.3696289	40.2793
1.3720703	39.68959
1.3745117	42.95765
1.3769531	48.664467
1.3793945	55.08129
1.3818359	60.884407
1.3842773	65.27547
1.3867188	67.942635
1.3891602	69.0048
1.3916016	68.91289
1.394043	68.267746
1.3964844	67.56373
1.3989258	66.953415
1.4013672	66.17429
1.4038086	64.688934
1.40625	61.93388
1.4086914	57.530586
1.4111328	51.38399
1.4135742	43.675682
1.4160156	34.789375
1.418457	25.211996
1.4208984	15.465906
1.4233398	6.3472047
1.4257812	5.346402
1.4282227	13.193532
1.4306641	20.844568
1.4331055	27.559538
1.4355469	33.086414
1.4379883	37.26307
1.4404297	40.031406
1.4428711	41.47673
1.4453125	41.84707
1.4477539	41.534245
1.4501953	41.014355
1.4526367	40.75562
1.4550781	41.11352
1.4575195	42.24838
1.4599609	44.104473
1.4624023	46.459373
1.4648438	49.019543
1.4672852	51.51722
1.4697266	53.784622
1.472168	55.78392
1.4746094	57.596302
1.4770508	59.373837
1.4794922	61.279915
1.4819336	63.440384
1.484375	65.92515
1.4868164	68.75809
1.4892578	71.943405
1.4916992	75.48574
1.4941406	79.38938
1.496582	83.640045
1.4990234	88.17684
1.5014648	92.86777
1.5039062	97.497025
1.5063477	101.77449
1.5087891	105.37283
1.5112305	107.98782
1.5136719	109.40335
1.5161133	109.53582
1.5185547	108.43993
1.5209961	106.27615
1.5234375	103.26434
1.5258789	99.655556
1.5283203	95.74252
1.5307617	91.88016
1.5332031	88.46201
1.5356445	85.81211
1.5380859	84.03481
1.5405273	82.93166
1.5429688	82.06974
1.5454102	80.96503
1.5478516	79.27073
1.550293	76.88046
1.5527344	73.92396
1.5551758	70.67514
1.5576172	67.41455
1.5600586	64.293106
1.5625	61.268417
1.5649414	58.151516
1.5673828	54.748787
1.5698242	51.02292
1.5722656	47.201035
1.574707	43.777157
1.5771484	41.36415
1.5795898	40.410244
1.5820312	40.946484
1.5844727	42.612366
1.5869141	44.909397
1.5893555	47.40483
1.5917969	49.768547
1.5942383	51.74592
1.5966797	53.1815
1.5991211	54.11641
1.6015625	54.88782
1.6040039	56.107544
1.6064453	58.422928
1.6088867	62.133213
1.6113281	66.95773
1.6137695	72.16543
1.6162109	76.928665
1.6186523	80.63788
1.6210938	83.063736
1.6235352	84.35921
1.6259766	84.93486
1.628418	85.25755
1.6308594	85.65409
1.6333008	86.20206
1.6357422	86.73876
1.6381836	86.951515
1.640625	86.48971
1.6430664	85.05736
1.6455078	82.4771
1.6479492	78.71859
1.6503906	73.89236
1.652832	68.213326
1.6552734	61.95172
1.6577148	55.39287
1.6601562	48.83123
1.6625977	42.61786
1.6650391	37.26887
1.6674805	33.57849
1.6699219	32.492317
1.6723633	34.48429
1.6748047	39.04865
1.6772461	45.107803
1.6796875	51.6602
1.6821289	58.023827
1.6845703	63.82962
1.6870117	68.948616
1.6894531	73.406715
1.6918945	77.30318
1.6943359	80.75227
1.6967773	83.858086
1.6992188	86.71333
1.7016602	89.40567
1.7041016	92.00901
1.706543	94.55987
1.7089844	97.03113
1.7114258	99.320465
1.7138672	101.26024
1.7163086	102.64771
1.71875	103.28507
1.7211914	103.01472
1.7236328	101.73601
1.7260742	99.40062
1.7285156	95.996475
1.730957	91.53787
1.7333984	86.076744
1.7358398	79.740715
1.7382812	72.78277
1.7407227	65.61646
1.7431641	58.813065
1.7456055	53.03837
1.7480469	48.916126
1.7504883	46.828
1.7529297	46.74601
1.7553711	48.241333
1.7578125	50.67642
1.7602539	53.425766
1.7626953	56.012257
1.7651367	58.158455
1.7675781	59.781815
1.7700195	60.953804
1.7724609	61.838894
1.7749023	62.63105
1.7773438	63.508682
1.7797852	64.61142
1.7822266	66.02858
1.784668	67.78757
1.7871094	69.83716
1.7895508	72.032745
1.7919922	74.128975
1.7944336	75.80081
1.796875	76.69969
1.7993164	76.535545
1.8017578	75.15117
1.8041992	72.55816
1.8066406	68.92927
1.809082	64.56546
1.8115234	59.86725
1.8139648	55.32833
1.8164062	51.53711
1.8188477	49.123505
1.8212891	48.585472
1.8237305	50.041145
1.8261719	53.1195
1.8286133	57.10942
1.8310547	61.211628
1.8334961	64.72338
1.8359375	67.12626
1.8383789	68.11397
1.8408203	67.580635
1.8432617	65.58428
1.8457031	62.306023
1.8481445	58.02476
1.8505859	53.116
1.8530273	48.066597
1.8554688	43.472416
1.8579102	39.96691
1.8603516	38.034992
1.862793	37.78673
1.8652344	38.921112
1.8676758	40.956852
1.8701172	43.493298
1.8725586	46.29478
1.875	49.215405
1.8774414	52.080727
1.8798828	54.62941
1.8823242	56.548046
1.8847656	57.57029
1.887207	57.5712
1.8896484	56.617775
1.8920898	54.955647
1.8945312	52.943874
1.8969727	50.955948
1.8994141	49.284412
1.9018555	48.08222
1.9042969	47.364307
1.9067383	47.054516
1.9091797	47.044308
1.9116211	47.236736
1.9140625	47.566456
1.9165039	48.002552
1.9189453	48.540134
1.9213867	49.18457
1.9238281	49.927773
1.9262695	50.72499
1.9287109	51.481518
1.9311523	52.06004
1.9335938	52.304504
1.9360352	52.071606
1.9384766	51.259903
1.940918	49.83114
1.9433594	47.82031
1.9458008	45.32812
1.9482422	42.491882
1.9506836	39.442596
1.953125	36.261387
1.9555664	32.96255
1.9580078	29.51822
1.9604492	25.924482
1.9628906	22.284988
1.965332	18.899673
1.9677734	16.342144
1.9702148	15.381819
1.9726562	16.459017
1.9750977	19.223238
1.9775391	22.969221
1.9799805	27.137897
1.9824219	31.367826
1.9848633	35.419243
1.9873047	39.14411
1.9897461	42.495457
1.9921875	45.53166
1.9946289	48.37807
1.9970703	51.15218
1.9995117	53.88734
2.0019531	56.50497
2.0043945	58.846943
2.006836	60.75096
2.0092773	62.12938
2.0117188	63.016804
2.0141602	63.569225
2.0166016	64.01682
2.019043	64.58889
2.0214844	65.439316
2.0239258	66.597664
2.0263672	67.9668
2.0288086	69.36051
2.03125	70.56403
2.0336914	71.38338
2.0361328	71.676125
2.0385742	71.3576
2.0410156	70.395226
2.043457	68.80144
2.0458984	66.626656
2.0483398	63.950512
2.0507812	60.86885
2.0532227	57.484848
2.055664	53.913017
2.0581055	50.29109
2.0605469	46.779163
2.0629883	43.533897
2.0654297	40.663914
2.067871	38.19341
2.0703125	36.056545
2.072754	34.13253
2.0751953	32.3027
2.0776367	30.497572
2.0800781	28.714111
2.0825195	27.004091
2.084961	25.44241
2.0874023	24.093412
2.0898438	22.98208
2.0922852	22.084312
2.0947266	21.33585
2.097168	20.658386
2.0996094	19.989622
2.1020508	19.300468
2.1044922	18.59461
2.1069336	17.888641
2.109375	17.186283
2.1118164	16.459597
2.1142578	15.649655
2.1166992	14.688685
2.1191406	13.533116
2.121582	12.192505
2.1240234	10.740017
2.1264648	9.303231
2.1289062	8.037503
2.1313477	7.0881095
2.133789	6.544867
2.1362305	6.4124856
2.1386719	6.6415057
2.1411133	7.2079167
2.1435547	8.159395
2.145996	9.570192
2.1484375	11.453697
2.150879	13.71867
2.1533203	16.195116
2.1557617	18.689684
2.1582031	21.035759
2.1606445	23.129217
2.163086	24.9388
2.1655273	26.49462
2.1679688	27.857304
2.1704102	29.084656
2.1728516	30.211706
2.175293	31.25532
2.1777344	32.23172
2.1801758	33.163136
2.1826172	34.060238
2.1850586	34.894463
2.1875	35.589943
2.1899414	36.047916
2.1923828	36.186005
2.1948242	35.96651
2.1972656	35.398964
2.199707	34.526802
2.2021484	33.411934
2.2045898	32.125626
2.2070312	30.74354
2.2094727	29.341928
2.211914	27.992496
2.2143555	26.755535
2.2167969	25.675583
2.2192383	24.775568
2.2216797	24.0546
2.224121	23.492142
2.2265625	23.06415
2.229004	22.763361
2.2314453	22.609978
2.2338867	22.638859
2.2363281	22.865992
2.2387695	23.255556
2.241211	23.714432
2.2436523	24.116879
2.2460938	24.344889
2.2485352	24.319672
2.2509766	24.01283
2.253418	23.441326
2.2558594	22.656132
2.2583008	21.72829
2.2607422	20.729523
2.2631836	19.705425
2.265625	18.65352
2.2680664	17.51986
2.2705078	16.22214
2.2729492	14.686975
2.2753906	12.888947
2.277832	10.877814
2.2802734	8.791166
2.2827148	6.8518963
2.2851562	5.3423395
2.2875977	4.505113
2.290039	4.360884
2.2924805	4.7603703
2.2949219	5.6795444
2.2973633	7.1915197
2.2998047	9.252239
2.302246	11.678763
2.3046875	14.251635
2.307129	16.795664
2.3095703	19.215935
2.3120117	21.499372
2.3144531	23.685802
2.3168945	25.82045
2.319336	27.90792
2.3217773	29.892344
2.3242188	31.670242
2.3266602	33.12532
2.3291016	34.16439
2.331543	34.742073
2.3339844	34.87242
2.3364258	34.631836
2.3388672	34.15286
2.3413086	33.607395
2.34375	33.17277
2.3461914	32.981285
2.3486328	33.06783
2.3510742	33.343533
2.3535156	33.610966
2.355957	33.61824
2.3583984	33.127274
2.3608398	31.979868
2.3632812	30.154083
2.3657227	27.809963
2.368164	25.327694
2.3706055	23.30514
2.3730469	22.415497
2.3754883	23.04194
2.3779297	24.985603
2.380371	27.651823
2.3828125	30.441921
2.385254	32.945118
2.3876953	34.949715
2.3901367	36.39732
2.3925781	37.333347
2.3950195	37.864
2.397461	38.117226
2.3999023	38.20293
2.4023438	38.17491
2.4047852	38.009644
2.4072266	37.612133
2.409668	36.852062
2.4121094	35.612335
2.4145508	33.83205
2.4169922	31.527082
2.4194336	28.788046
2.421875	25.761217
2.4243164	22.622417
2.4267578	19.55287
2.4291992	16.724932
2.4316406	14.304961
2.434082	12.469666
2.4365234	11.412717
2.4389648	11.288467
2.4414062	12.101423
2.4438477	13.685076
2.446289	15.806396
2.4487305	18.256016
2.4511719	20.867739
2.4536133	23.505297
2.4560547	26.047638
2.458496	28.37932
2.4609375	30.392578
2.463379	31.998919
2.4658203	33.149338
2.4682617	33.857044
2.4707031	34.21118
