
X-Axis: Frequency (hz)
Y-Axis: Fourier Amplitude (cm/s)
Number of Data Sets: 4


DATASET #1

Name: FAS H1 (cm/s)
Num Points: 2044
Info: 

X, Y Data:
0.009765625	0.30931377
0.012207031	0.44296196
0.014648438	0.5978149
0.017089844	0.7670876
0.01953125	0.944397
0.021972656	1.1224719
0.024414062	1.2892838
0.026855469	1.4284385
0.029296875	1.523999
0.03173828	1.5632321
0.034179688	1.5350555
0.036621094	1.4295409
0.0390625	1.2428267
0.041503906	0.9840899
0.043945312	0.68358296
0.04638672	0.4358654
0.048828125	0.4987586
0.05126953	0.8373977
0.053710938	1.2402961
0.056152344	1.6409107
0.05859375	2.0181649
0.061035156	2.3654118
0.06347656	2.679857
0.06591797	2.9586632
0.068359375	3.200951
0.07080078	3.4107525
0.07324219	3.5963213
0.075683594	3.7663503
0.078125	3.9265707
0.080566406	4.0783105
0.08300781	4.2178936
0.08544922	4.3352776
0.087890625	4.4120684
0.09033203	4.4207296
0.09277344	4.3270864
0.095214844	4.0962644
0.09765625	3.7001464
0.10009766	3.1242254
0.10253906	2.377239
0.10498047	1.5297034
0.10742188	0.98487526
0.10986328	1.6053202
0.11230469	2.7821817
0.11474609	4.037347
0.1171875	5.223217
0.11962891	6.249949
0.12207031	7.049534
0.12451172	7.57224
0.12695312	7.789361
0.12939453	7.6965675
0.13183594	7.3139477
0.13427734	6.6815095
0.13671875	5.852442
0.13916016	4.887919
0.14160156	3.8547616
0.14404297	2.8248909
0.14648438	1.8793222
0.14892578	1.1436732
0.15136719	0.90251607
0.1538086	1.2292546
0.15625	1.7306954
0.1586914	2.2560496
0.16113281	2.8001025
0.16357422	3.3835504
0.16601562	4.016805
0.16845703	4.6835785
0.17089844	5.3337092
0.17333984	5.8845243
0.17578125	6.231463
0.17822266	6.266959
0.18066406	5.904228
0.18310547	5.100647
0.18554688	3.8752918
0.18798828	2.3198845
0.19042969	0.67795116
0.1928711	1.3593502
0.1953125	2.915016
0.1977539	4.1363044
0.20019531	4.8683934
0.20263672	5.05098
0.20507812	4.7096066
0.20751953	3.9498541
0.20996094	2.9433386
0.21240234	1.9121369
0.21484375	1.1276495
0.21728516	0.83832157
0.21972656	0.79847455
0.22216797	0.5790459
0.22460938	0.11068694
0.22705078	0.6209563
0.22949219	1.3751357
0.2319336	2.0670907
0.234375	2.6200743
0.2368164	3.039217
0.23925781	3.3967824
0.24169922	3.7680626
0.24414062	4.164257
0.24658203	4.529797
0.24902344	4.7920823
0.25146484	4.9034996
0.25390625	4.8558073
0.25634766	4.683026
0.25878906	4.467371
0.26123047	4.3409185
0.26367188	4.4468904
0.26611328	4.8431106
0.2685547	5.444353
0.2709961	6.086526
0.2734375	6.626384
0.2758789	6.9927616
0.2783203	7.1762137
0.28076172	7.166902
0.28320312	6.88607
0.28564453	6.181614
0.28808594	4.9104967
0.29052734	3.05873
0.29296875	0.9219918
0.29541016	1.7476228
0.29785156	3.6099617
0.30029297	4.636029
0.30273438	4.538366
0.30517578	3.4086163
0.3076172	2.0574064
0.3100586	2.6927493
0.3125	4.4580274
0.3149414	5.681439
0.3173828	5.8906713
0.31982422	5.083151
0.32226562	3.5993464
0.32470703	2.1792488
0.32714844	2.1201217
0.32958984	3.0297441
0.33203125	3.6935096
0.33447266	3.8286424
0.33691406	3.4664652
0.33935547	2.8149107
0.34179688	2.5793178
0.34423828	3.645593
0.3466797	5.45491
0.3491211	7.1101527
0.3515625	8.013348
0.3540039	7.882517
0.3564453	6.8971453
0.35888672	5.905845
0.36132812	6.160033
0.36376953	7.6222754
0.36621094	9.108274
0.36865234	9.8618355
0.37109375	9.778087
0.37353516	9.301875
0.37597656	9.239658
0.37841797	10.161554
0.38085938	11.83285
0.38330078	13.574463
0.3857422	14.779906
0.3881836	15.050011
0.390625	14.236328
0.3930664	12.528662
0.3955078	10.529654
0.39794922	9.125668
0.40039062	8.81759
0.40283203	9.121659
0.40527344	9.285442
0.40771484	9.011442
0.41015625	8.352373
0.41259766	7.399596
0.41503906	6.1777835
0.41748047	4.7575316
0.41992188	3.3657522
0.42236328	2.452658
0.4248047	2.6765566
0.4272461	3.9154162
0.4296875	5.464259
0.4321289	6.8180275
0.4345703	7.740891
0.43701172	8.401632
0.43945312	9.272952
0.44189453	10.57646
0.44433594	11.918855
0.44677734	12.645723
0.44921875	12.314025
0.45166016	10.9004
0.45410156	8.838373
0.45654297	6.9946337
0.45898438	6.3304358
0.46142578	6.7368383
0.4638672	7.079206
0.4663086	6.5686984
0.46875	5.062748
0.4711914	2.892596
0.4736328	0.6353322
0.47607422	1.4538517
0.47851562	3.392606
0.48095703	5.818963
0.48339844	8.773497
0.48583984	11.553948
0.48828125	13.20822
0.49072266	13.048746
0.49316406	10.970456
0.49560547	7.5101657
0.49804688	3.6545115
0.5004883	1.4486086
0.5029297	3.7676601
0.5053711	6.657268
0.5078125	9.722437
0.5102539	12.525744
0.5126953	14.357025
0.5151367	14.751379
0.5175781	13.715788
0.52001953	11.624152
0.52246094	8.976809
0.52490234	6.2433224
0.52734375	3.905224
0.52978516	2.7269664
0.53222656	3.172452
0.53466797	4.1840296
0.5371094	5.1094117
0.5395508	5.858768
0.5419922	6.4590874
0.5444336	6.93086
0.546875	7.279567
0.5493164	7.521879
0.5517578	7.7111397
0.5541992	7.933375
0.5566406	8.248031
0.55908203	8.604988
0.56152344	8.836061
0.56396484	8.753853
0.56640625	8.281097
0.56884766	7.523381
0.57128906	6.7329006
0.57373047	6.1615777
0.5761719	5.9367046
0.5786133	6.1175656
0.5810547	6.735957
0.5834961	7.6220555
0.5859375	8.345171
0.5883789	8.416851
0.5908203	7.5241218
0.5932617	5.6717668
0.5957031	3.2528555
0.59814453	1.6599232
0.60058594	3.1580882
0.60302734	5.103019
0.60546875	6.7031407
0.60791016	8.083299
0.61035156	9.444926
0.61279297	10.83743
0.6152344	12.123613
0.6176758	13.087377
0.6201172	13.566668
0.6225586	13.527855
0.625	13.063107
0.6274414	12.343161
0.6298828	11.578444
0.6323242	10.987366
0.6347656	10.681999
0.63720703	10.491601
0.63964844	9.993007
0.64208984	8.810176
0.64453125	6.886364
0.64697266	4.5385857
0.64941406	2.3382373
0.65185547	1.0438455
0.6542969	0.9854718
0.6567383	0.8239602
0.6591797	1.175095
0.6616211	2.8689477
0.6640625	5.1325116
0.6665039	7.4785037
0.6689453	9.434495
0.6713867	10.588012
0.6738281	10.724813
0.67626953	9.91632
0.67871094	8.525288
0.68115234	7.188679
0.68359375	6.7248282
0.68603516	7.5257974
0.68847656	9.0957575
0.69091797	10.761719
0.6933594	12.143314
0.6958008	13.137979
0.6982422	13.808488
0.7006836	14.212191
0.703125	14.246275
0.7055664	13.67141
0.7080078	12.329679
0.7104492	10.372344
0.7128906	8.290041
0.71533203	6.5920963
0.71777344	5.2255282
0.72021484	3.5462499
0.72265625	1.0546806
0.72509766	2.2613742
0.72753906	5.891487
0.72998047	9.251658
0.7324219	11.793071
0.7348633	13.188873
0.7373047	13.385892
0.7397461	12.57321
0.7421875	11.10197
0.7446289	9.392307
0.7470703	7.8433914
0.7495117	6.7312446
0.7519531	6.0882645
0.75439453	5.689195
0.75683594	5.259942
0.75927734	4.7396417
0.76171875	4.415106
0.76416016	4.716251
0.76660156	5.604255
0.76904297	6.58466
0.7714844	7.2425
0.7739258	7.453593
0.7763672	7.37154
0.7788086	7.2671275
0.78125	7.296679
0.7836914	7.4837327
0.7861328	7.8948097
0.7885742	8.544198
0.7910156	9.110272
0.79345703	9.06486
0.79589844	8.12952
0.79833984	6.6091976
0.80078125	5.405523
0.80322266	5.2309494
0.80566406	5.4940367
0.80810547	5.323487
0.8105469	4.555544
0.8129883	3.572317
0.8154297	3.005377
0.8178711	3.3513062
0.8203125	4.6146884
0.8227539	6.6368275
0.8251953	9.186917
0.8276367	11.888177
0.8300781	14.344287
0.83251953	16.281765
0.83496094	17.553755
0.83740234	18.024744
0.83984375	17.502958
0.84228516	15.833224
0.84472656	13.071281
0.84716797	9.607884
0.8496094	6.270121
0.8520508	4.5716224
0.8544922	5.3163676
0.8569336	6.70388
0.859375	7.7576942
0.8618164	8.621494
0.8642578	9.675393
0.8666992	10.996594
0.8691406	12.263555
0.87158203	12.997111
0.87402344	12.803667
0.87646484	11.532329
0.87890625	9.3677845
0.88134766	6.9013453
0.88378906	5.329221
0.88623047	5.9297204
0.8886719	7.9114056
0.8911133	9.960959
0.8935547	11.534612
0.8959961	12.538204
0.8984375	13.144264
0.9008789	13.65366
0.9033203	14.31843
0.9057617	15.184128
0.9082031	16.038736
0.91064453	16.5027
0.91308594	16.21224
0.91552734	14.996311
0.91796875	12.953268
0.92041016	10.384185
0.92285156	7.6141715
0.92529297	4.814752
0.9277344	2.0433
0.9301758	1.4897743
0.9326172	4.091082
0.9350586	6.192265
0.9375	7.0414314
0.9399414	6.225318
0.9423828	3.7480254
0.9448242	0.41704702
0.9472656	4.2425933
0.94970703	8.178562
0.95214844	11.225708
0.95458984	13.068449
0.95703125	13.731638
0.95947266	13.569793
0.96191406	13.268355
0.96435547	13.680692
0.9667969	15.248395
0.9692383	17.623135
0.9716797	20.13125
0.9741211	22.302502
0.9765625	23.985014
0.9790039	25.232136
0.9814453	26.148859
0.9838867	26.790407
0.9863281	27.136547
0.98876953	27.116148
0.99121094	26.65897
0.99365234	25.777653
0.99609375	24.665663
0.99853516	23.727226
1.0009766	23.4149
1.003418	23.887896
1.0058594	24.793953
1.0083008	25.42437
1.0107422	25.064718
1.0131836	23.27968
1.015625	20.048548
1.0180664	15.742338
1.0205078	10.976732
1.0229492	6.418793
1.0253906	2.655796
1.027832	1.1543324
1.0302734	2.722942
1.0327148	3.9381855
1.0351562	4.538081
1.0375977	4.381158
1.0400391	3.3502595
1.0424805	1.8748673
1.0449219	2.9211028
1.0473633	6.1871505
1.0498047	9.926183
1.0522461	13.659954
1.0546875	17.097795
1.0571289	20.033625
1.0595703	22.354445
1.0620117	24.052448
1.0644531	25.19878
1.0668945	25.877132
1.0693359	26.121557
1.0717773	25.905159
1.0742188	25.17587
1.0766602	23.896727
1.0791016	22.061941
1.081543	19.700043
1.0839844	16.8973
1.0864258	13.866624
1.0888672	11.077714
1.0913086	9.387897
1.09375	9.610181
1.0961914	11.388254
1.0986328	13.674932
1.1010742	15.7763
1.1035156	17.408974
1.105957	18.525078
1.1083984	19.191734
1.1108398	19.511696
1.1132812	19.563387
1.1157227	19.354713
1.1181641	18.80249
1.1206055	17.754747
1.1230469	16.046152
1.1254883	13.557284
1.1279297	10.258473
1.1303711	6.254206
1.1328125	2.1979434
1.1352539	4.159403
1.1376953	8.943784
1.1401367	13.468603
1.1425781	17.263903
1.1450195	20.05358
1.1474609	21.673973
1.1499023	22.075863
1.1523438	21.364674
1.1547852	19.824785
1.1572266	17.857988
1.159668	15.836899
1.1621094	13.975069
1.1645508	12.323709
1.1669922	10.875476
1.1694336	9.650685
1.171875	8.696434
1.1743164	8.033999
1.1767578	7.609618
1.1791992	7.2817373
1.1816406	6.864842
1.184082	6.2048182
1.1865234	5.223112
1.1889648	3.9105234
1.1914062	2.3213217
1.1938477	0.74206436
1.1962891	1.5911506
1.1987305	3.3960469
1.2011719	5.431051
1.2036133	8.136348
1.2060547	11.925866
1.2084961	16.82639
1.2109375	22.486113
1.2133789	28.330046
1.2158203	33.687283
1.2182617	37.900665
1.2207031	40.462284
1.2231445	41.163677
1.2255859	40.186546
1.2280273	38.04935
1.2304688	35.390686
1.2329102	32.69719
1.2353516	30.16568
1.237793	27.789644
1.2402344	25.530151
1.2426758	23.383503
1.2451172	21.338522
1.2475586	19.348524
1.25	17.376766
1.2524414	15.452931
1.2548828	13.672022
1.2573242	12.144781
1.2597656	10.957689
1.262207	10.175462
1.2646484	9.852371
1.2670898	10.004041
1.2695312	10.571806
1.2719727	11.439736
1.2744141	12.462097
1.2768555	13.440127
1.2792969	14.099721
1.2817383	14.146186
1.2841797	13.386638
1.2866211	11.848144
1.2890625	9.843276
1.2915039	7.9943714
1.2939453	7.145955
1.2963867	7.7395134
1.2988281	9.282593
1.3012695	11.097008
1.3037109	12.784416
1.3061523	14.125624
1.3085938	14.975776
1.3110352	15.243316
1.3134766	14.924195
1.315918	14.167704
1.3183594	13.318623
1.3208008	12.829066
1.3232422	12.966534
1.3256836	13.575939
1.328125	14.266631
1.3305664	14.792519
1.3330078	15.217438
1.3354492	15.797708
1.3378906	16.708496
1.340332	17.865566
1.3427734	18.995205
1.3452148	19.805857
1.3476562	20.084528
1.3500977	19.716702
1.3525391	18.687304
1.3549805	17.081003
1.3574219	15.065618
1.3598633	12.845551
1.3623047	10.590669
1.3647461	8.36556
1.3671875	6.1038256
1.3696289	3.6767945
1.3720703	1.2704976
1.3745117	2.672512
1.3769531	5.893396
1.3793945	9.150856
1.3818359	12.109933
1.3842773	14.543136
1.3867188	16.330936
1.3891602	17.470707
1.3916016	18.052124
1.394043	18.201593
1.3964844	18.021435
1.3989258	17.559067
1.4013672	16.820593
1.4038086	15.806467
1.40625	14.53898
1.4086914	13.069037
1.4111328	11.465935
1.4135742	9.794854
1.4160156	8.098234
1.418457	6.4390254
1.4208984	5.110968
1.4233398	4.939535
1.4257812	6.4451394
1.4282227	8.906236
1.4306641	11.539948
1.4331055	13.88899
1.4355469	15.715147
1.4379883	16.95524
1.4404297	17.690968
1.4428711	18.087662
1.4453125	18.29777
1.4477539	18.371164
1.4501953	18.236279
1.4526367	17.770107
1.4550781	16.90008
1.4575195	15.667789
1.4599609	14.224381
1.4624023	12.769828
1.4648438	11.468819
1.4672852	10.388687
1.4697266	9.495098
1.472168	8.69985
1.4746094	7.9199047
1.4770508	7.124077
1.4794922	6.365249
1.4819336	5.7915974
1.484375	5.59232
1.4868164	5.8542523
1.4892578	6.477902
1.4916992	7.2851596
1.4941406	8.151514
1.496582	9.029513
1.4990234	9.899753
1.5014648	10.709679
1.5039062	11.35729
1.5063477	11.737661
1.5087891	11.826092
1.5112305	11.749197
1.5136719	11.787281
1.5161133	12.243133
1.5185547	13.220484
1.5209961	14.539709
1.5234375	15.883156
1.5258789	16.976496
1.5283203	17.674747
1.5307617	17.97218
1.5332031	17.975084
1.5356445	17.85516
1.5380859	17.791643
1.5405273	17.918016
1.5429688	18.291378
1.5454102	18.896965
1.5478516	19.681496
1.550293	20.59148
1.5527344	21.58646
1.5551758	22.61215
1.5576172	23.559675
1.5600586	24.259483
1.5625	24.52777
1.5649414	24.23385
1.5673828	23.345236
1.5698242	21.938547
1.5722656	20.184002
1.574707	18.31647
1.5771484	16.594248
1.5795898	15.238499
1.5820312	14.364101
1.5844727	13.944262
1.5869141	13.850658
1.5893555	13.926717
1.5917969	14.017823
1.5942383	13.949944
1.5966797	13.520315
1.5991211	12.553682
1.6015625	11.015572
1.6040039	9.157345
1.6064453	7.6709957
1.6088867	7.516401
1.6113281	8.786181
1.6137695	10.523373
1.6162109	11.898794
1.6186523	12.50989
1.6210938	12.252048
1.6235352	11.211391
1.6259766	9.587191
1.628418	7.6264114
1.6308594	5.5838013
1.6333008	3.769609
1.6357422	2.8354402
1.6381836	3.495864
1.640625	5.035903
1.6430664	6.691005
1.6455078	8.163771
1.6479492	9.349714
1.6503906	10.268372
1.652832	11.0325
1.6552734	11.787225
1.6577148	12.635012
1.6601562	13.590799
1.6625977	14.590114
1.6650391	15.522938
1.6674805	16.263508
1.6699219	16.687613
1.6723633	16.68944
1.6748047	16.200254
1.6772461	15.208315
1.6796875	13.774611
1.6821289	12.046339
1.6845703	10.279254
1.6870117	8.862594
1.6894531	8.243552
1.6918945	8.590271
1.6943359	9.56603
1.6967773	10.660632
1.6992188	11.517991
1.7016602	11.982016
1.7041016	12.041426
1.706543	11.764143
1.7089844	11.240648
1.7114258	10.548413
1.7138672	9.743248
1.7163086	8.871075
1.71875	7.985702
1.7211914	7.1680984
1.7236328	6.5515966
1.7260742	6.335983
1.7285156	6.7189164
1.730957	7.7362742
1.7333984	9.217233
1.7358398	10.89983
1.7382812	12.530531
1.7407227	13.910313
1.7431641	14.921801
1.7456055	15.544859
1.7480469	15.842912
1.7504883	15.909715
1.7529297	15.792411
1.7553711	15.444692
1.7578125	14.753578
1.7602539	13.626339
1.7626953	12.081944
1.7651367	10.312715
1.7675781	8.709199
1.7700195	7.7890673
1.7724609	7.8533263
1.7749023	8.6380415
1.7773438	9.617094
1.7797852	10.406743
1.7822266	10.811669
1.784668	10.75595
1.7871094	10.248038
1.7895508	9.387089
1.7919922	8.389472
1.7944336	7.6065507
1.796875	7.4573574
1.7993164	8.165272
1.8017578	9.555599
1.8041992	11.238685
1.8066406	12.838872
1.809082	14.0691
1.8115234	14.747888
1.8139648	14.800599
1.8164062	14.245871
1.8188477	13.177096
1.8212891	11.761238
1.8237305	10.273004
1.8261719	9.154397
1.8286133	8.961642
1.8310547	9.976235
1.8334961	11.92736
1.8359375	14.334129
1.8383789	16.816668
1.8408203	19.12926
1.8432617	21.12012
1.8457031	22.697586
1.8481445	23.803751
1.8505859	24.39363
1.8530273	24.421307
1.8554688	23.839405
1.8579102	22.612509
1.8603516	20.743689
1.862793	18.301926
1.8652344	15.437878
1.8676758	12.384824
1.8701172	9.456469
1.8725586	7.07977
1.875	5.838904
1.8774414	6.1079664
1.8798828	7.460827
1.8823242	9.29057
1.8847656	11.295758
1.887207	13.355305
1.8896484	15.413509
1.8920898	17.438608
1.8945312	19.40403
1.8969727	21.27236
1.8994141	22.982574
1.9018555	24.444546
1.9042969	25.54606
1.9067383	26.173532
1.9091797	26.241482
1.9116211	25.717846
1.9140625	24.634512
1.9165039	23.083878
1.9189453	21.209515
1.9213867	19.199984
1.9238281	17.285189
1.9262695	15.71916
1.9287109	14.720506
1.9311523	14.365918
1.9335938	14.518899
1.9360352	14.888815
1.9384766	15.169182
1.940918	15.144925
1.9433594	14.743544
1.9458008	14.053124
1.9482422	13.306574
1.9506836	12.801453
1.953125	12.74482
1.9555664	13.129653
1.9580078	13.784998
1.9604492	14.534095
1.9628906	15.277459
1.965332	15.958664
1.9677734	16.489029
1.9702148	16.714228
1.9726562	16.447985
1.9750977	15.538322
1.9775391	13.92083
1.9799805	11.638007
1.9824219	8.829604
1.9848633	5.70938
1.9873047	2.5751004
1.9897461	1.2442025
1.9921875	3.6764984
1.9946289	5.972071
1.9970703	7.805351
1.9995117	9.175069
2.0019531	10.153588
2.0043945	10.844027
2.006836	11.346741
2.0092773	11.736632
2.0117188	12.056525
2.0141602	12.325996
2.0166016	12.556955
2.019043	12.765407
2.0214844	12.975389
2.0239258	13.216469
2.0263672	13.521858
2.0288086	13.929419
2.03125	14.480523
2.0336914	15.205758
2.0361328	16.101538
2.0385742	17.109785
2.0410156	18.121094
2.043457	19.00012
2.0458984	19.621393
2.0483398	19.900187
2.0507812	19.815132
2.0532227	19.425224
2.055664	18.87847
2.0581055	18.393055
2.0605469	18.186922
2.0629883	18.36632
2.0654297	18.851933
2.067871	19.415154
2.0703125	19.78847
2.072754	19.76034
2.0751953	19.217093
2.0776367	18.143208
2.0800781	16.605978
2.0825195	14.743272
2.084961	12.767397
2.0874023	10.988415
2.0898438	9.817197
2.0922852	9.619063
2.0947266	10.401958
2.097168	11.791838
2.0996094	13.35816
2.1020508	14.805689
2.1044922	15.979871
2.1069336	16.821636
2.109375	17.31905
2.1118164	17.47036
2.1142578	17.26727
2.1166992	16.698408
2.1191406	15.760893
2.121582	14.469808
2.1240234	12.869467
2.1264648	11.056308
2.1289062	9.227665
2.1313477	7.752975
2.133789	7.1511073
2.1362305	7.688658
2.1386719	9.033333
2.1411133	10.685622
2.1435547	12.345147
2.145996	13.895564
2.1484375	15.313646
2.150879	16.603899
2.1533203	17.761005
2.1557617	18.754251
2.1582031	19.528736
2.1606445	20.016275
2.163086	20.150572
2.1655273	19.881557
2.1679688	19.188507
2.1704102	18.088375
2.1728516	16.635685
2.175293	14.921049
2.1777344	13.084764
2.1801758	11.356871
2.1826172	10.082821
2.1850586	9.603217
2.1875	9.940455
2.1899414	10.701915
2.1923828	11.396479
2.1948242	11.696965
2.1972656	11.485199
2.199707	10.802813
2.2021484	9.780011
2.2045898	8.571955
2.2070312	7.3208685
2.2094727	6.151503
2.211914	5.1885166
2.2143555	4.56455
2.2167969	4.381841
2.2192383	4.643112
2.2216797	5.2654467
2.224121	6.1592097
2.2265625	7.2479186
2.229004	8.444034
2.2314453	9.64278
2.2338867	10.743677
2.2363281	11.677464
2.2387695	12.417491
2.241211	12.968793
2.2436523	13.34196
2.2460938	13.528246
2.2485352	13.493556
2.2509766	13.196552
2.253418	12.619327
2.2558594	11.792384
2.2583008	10.798764
2.2607422	9.753725
2.2631836	8.766107
2.265625	7.9028897
2.2680664	7.1859565
2.2705078	6.627612
2.2729492	6.270953
2.2753906	6.1873507
2.277832	6.4219513
2.2802734	6.9387503
2.2827148	7.6279564
2.2851562	8.355723
2.2875977	9.005047
2.290039	9.492453
2.2924805	9.770736
2.2949219	9.827862
2.2973633	9.683173
2.2998047	9.382011
2.302246	8.985277
2.3046875	8.5570965
2.307129	8.151269
2.3095703	7.800441
2.3120117	7.5105653
2.3144531	7.265465
2.3168945	7.041042
2.319336	6.8232894
2.3217773	6.619612
2.3242188	6.453393
2.3266602	6.339466
2.3291016	6.2568574
2.331543	6.143737
2.3339844	5.92328
2.3364258	5.5389805
2.3388672	4.9764423
2.3413086	4.26475
2.34375	3.4653943
2.3461914	2.659214
2.3486328	1.9412825
2.3510742	1.4305278
2.3535156	1.2573514
2.355957	1.418358
2.3583984	1.763369
2.3608398	2.1893375
2.3632812	2.6495621
2.3657227	3.1106262
2.368164	3.5504808
2.3706055	3.9713974
2.3730469	4.4039555
2.3754883	4.891996
2.3779297	5.463832
2.380371	6.110778
2.3828125	6.789449
2.385254	7.4424195
2.3876953	8.020166
2.3901367	8.492446
2.3925781	8.848416
2.3950195	9.087081
2.397461	9.202187
2.3999023	9.169426
2.4023438	8.946024
2.4047852	8.487992
2.4072266	7.7807255
2.409668	6.876134
2.4121094	5.934429
2.4145508	5.256358
2.4169922	5.192072
2.4194336	5.8186274
2.421875	6.85141
2.4243164	7.9581337
2.4267578	8.926104
2.4291992	9.655514
2.4316406	10.130054
2.434082	10.395772
2.4365234	10.542812
2.4389648	10.682948
2.4414062	10.92124
2.4438477	11.32281
2.446289	11.886668
2.4487305	12.544098
2.4511719	13.184001
2.4536133	13.692023
2.4560547	13.984275
