
X-Axis: Frequency (hz)
Y-Axis: Fourier Amplitude (cm/s)
Number of Data Sets: 4


DATASET #1

Name: FAS H1 (cm/s)
Num Points: 2044
Info: 

X, Y Data:
0.009765625	1.7412752
0.012207031	2.2588897
0.014648438	2.826843
0.017089844	3.4504035
0.01953125	4.1314077
0.021972656	4.867083
0.024414062	5.64891
0.026855469	6.462538
0.029296875	7.2882047
0.03173828	8.101908
0.034179688	8.87752
0.036621094	9.58946
0.0390625	10.215672
0.041503906	10.740118
0.043945312	11.154718
0.04638672	11.460211
0.048828125	11.665622
0.05126953	11.786009
0.053710938	11.839046
0.056152344	11.84137
0.05859375	11.805943
0.061035156	11.740835
0.06347656	11.649658
0.06591797	11.533271
0.068359375	11.391743
0.07080078	11.225774
0.07324219	11.037111
0.075683594	10.82823
0.078125	10.601898
0.080566406	10.360763
0.08300781	10.107174
0.08544922	9.843161
0.087890625	9.570733
0.09033203	9.292304
0.09277344	9.010791
0.095214844	8.729391
0.09765625	8.451375
0.10009766	8.179912
0.10253906	7.9177947
0.10498047	7.6668615
0.10742188	7.4275026
0.10986328	7.198488
0.11230469	6.97762
0.11474609	6.762417
0.1171875	6.5508637
0.11962891	6.34216
0.12207031	6.13737
0.12451172	5.9399166
0.12695312	5.755754
0.12939453	5.5933905
0.13183594	5.4641943
0.13427734	5.382024
0.13671875	5.361366
0.13916016	5.413917
0.14160156	5.5450807
0.14404297	5.752276
0.14648438	6.0256114
0.14892578	6.350754
0.15136719	6.713019
0.1538086	7.1012626
0.15625	7.5092764
0.1586914	7.9341154
0.16113281	8.372058
0.16357422	8.814555
0.16601562	9.245803
0.16845703	9.642976
0.17089844	9.979338
0.17333984	10.229618
0.17578125	10.376184
0.17822266	10.414401
0.18066406	10.355874
0.18310547	10.229258
0.18554688	10.077814
0.18798828	9.952644
0.19042969	9.900973
0.1928711	9.952784
0.1953125	10.111577
0.1977539	10.354139
0.20019531	10.638679
0.20263672	10.916264
0.20507812	11.140657
0.20751953	11.273783
0.20996094	11.286933
0.21240234	11.159027
0.21484375	10.874335
0.21728516	10.421607
0.21972656	9.795164
0.22216797	8.997419
0.22460938	8.041608
0.22705078	6.9538302
0.22949219	5.7733035
0.2319336	4.5501294
0.234375	3.3403358
0.2368164	2.19922
0.23925781	1.1750453
0.24169922	0.31866693
0.24414062	0.4577881
0.24658203	1.0075814
0.24902344	1.4302491
0.25146484	1.7514311
0.25390625	2.0107143
0.25634766	2.248943
0.25878906	2.5008664
0.26123047	2.7898676
0.26367188	3.126935
0.26611328	3.5149958
0.2685547	3.9580603
0.2709961	4.4709997
0.2734375	5.085049
0.2758789	5.843281
0.2783203	6.7861886
0.28076172	7.934984
0.28320312	9.283693
0.28564453	10.803528
0.28808594	12.455193
0.29052734	14.202393
0.29296875	16.02144
0.29541016	17.904327
0.29785156	19.854256
0.30029297	21.875452
0.30273438	23.961288
0.30517578	26.085423
0.3076172	28.199041
0.3100586	30.23441
0.3125	32.112362
0.3149414	33.7516
0.3173828	35.07818
0.31982422	36.03457
0.32226562	36.58858
0.32470703	36.741287
0.32714844	36.531975
0.32958984	36.03597
0.33203125	35.351166
0.33447266	34.570873
0.33691406	33.747528
0.33935547	32.86016
0.34179688	31.803448
0.34423828	30.407505
0.3466797	28.482105
0.3491211	25.868189
0.3515625	22.480839
0.3540039	18.337343
0.3564453	13.578044
0.35888672	8.534924
0.36132812	4.3734818
0.36376953	5.5042853
0.36621094	10.085252
0.36865234	14.803073
0.37109375	19.060764
0.37353516	22.699558
0.37597656	25.698229
0.37841797	28.11445
0.38085938	30.051153
0.38330078	31.626036
0.3857422	32.945297
0.3881836	34.083202
0.390625	35.06798
0.3930664	35.872635
0.3955078	36.41268
0.39794922	36.557007
0.40039062	36.157898
0.40283203	35.10435
0.40527344	33.39886
0.40771484	31.257412
0.41015625	29.217825
0.41259766	28.166536
0.41503906	29.04792
0.41748047	32.22684
0.41992188	37.225372
0.42236328	43.16725
0.4248047	49.24365
0.4272461	54.87526
0.4296875	59.71815
0.4321289	63.62602
0.4345703	66.597305
0.43701172	68.713104
0.43945312	70.07664
0.44189453	70.76762
0.44433594	70.8228
0.44677734	70.24376
0.44921875	69.02409
0.45166016	67.181244
0.45410156	64.78159
0.45654297	61.95028
0.45898438	58.866184
0.46142578	55.743973
0.4638672	52.807247
0.4663086	50.257168
0.46875	48.241444
0.4711914	46.831474
0.4736328	46.01513
0.47607422	45.70791
0.47851562	45.77815
0.48095703	46.077663
0.48339844	46.470318
0.48583984	46.85455
0.48828125	47.177067
0.49072266	47.43518
0.49316406	47.664906
0.49560547	47.916218
0.49804688	48.221752
0.5004883	48.571266
0.5029297	48.90218
0.5053711	49.110096
0.5078125	49.073658
0.5102539	48.683174
0.5126953	47.863773
0.5151367	46.585663
0.5175781	44.85945
0.52001953	42.71568
0.52246094	40.174324
0.52490234	37.215885
0.52734375	33.770287
0.52978516	29.734552
0.53222656	25.016869
0.53466797	19.589743
0.5371094	13.532806
0.5395508	7.05676
0.5419922	1.0282493
0.5444336	6.1837807
0.546875	12.027605
0.5493164	17.042706
0.5517578	21.028801
0.5541992	23.946156
0.5566406	25.914207
0.55908203	27.197914
0.56152344	28.168001
0.56396484	29.228195
0.56640625	30.715643
0.56884766	32.81053
0.57128906	35.506615
0.57373047	38.656094
0.5761719	42.04923
0.5786133	45.48374
0.5810547	48.806316
0.5834961	51.926254
0.5859375	54.80558
0.5883789	57.42973
0.5908203	59.7682
0.5932617	61.739426
0.5957031	63.19569
0.59814453	63.936405
0.60058594	63.74621
0.60302734	62.44594
0.60546875	59.941227
0.60791016	56.2559
0.61035156	51.542583
0.61279297	46.069614
0.6152344	40.19389
0.6176758	34.33539
0.6201172	28.968538
0.6225586	24.623144
0.625	21.823961
0.6274414	20.853338
0.6298828	21.47905
0.6323242	23.085762
0.6347656	25.094835
0.63720703	27.196749
0.63964844	29.357487
0.64208984	31.740309
0.64453125	34.599552
0.64697266	38.163776
0.64941406	42.53725
0.65185547	47.651096
0.6542969	53.27207
0.6567383	59.0479
0.6591797	64.56555
0.6616211	69.408424
0.6640625	73.20881
0.6665039	75.69455
0.6689453	76.72617
0.6713867	76.31644
0.6738281	74.62072
0.67626953	71.89074
0.67871094	68.39595
0.68115234	64.34149
0.68359375	59.824898
0.68603516	54.86346
0.68847656	49.480633
0.69091797	43.801823
0.6933594	38.10583
0.6958008	32.804592
0.6982422	28.348654
0.7006836	25.061703
0.703125	22.946787
0.7055664	21.613827
0.7080078	20.454308
0.7104492	18.951426
0.7128906	16.976727
0.71533203	15.121202
0.71777344	14.93767
0.72021484	17.84573
0.72265625	23.35511
0.72509766	30.064192
0.72753906	36.877876
0.72998047	43.09397
0.7324219	48.290676
0.7348633	52.250298
0.7373047	54.907444
0.7397461	56.31103
0.7421875	56.59407
0.7446289	55.943512
0.7470703	54.567112
0.7495117	52.66776
0.7519531	50.439034
0.75439453	48.084778
0.75683594	45.842106
0.75927734	43.972675
0.76171875	42.70189
0.76416016	42.13181
0.76660156	42.198803
0.76904297	42.72563
0.7714844	43.534397
0.7739258	44.540226
0.7763672	45.77615
0.7788086	47.35036
0.78125	49.36209
0.7836914	51.80689
0.7861328	54.50759
0.7885742	57.10002
0.7910156	59.085297
0.79345703	59.93709
0.79589844	59.23553
0.79833984	56.7964
0.80078125	52.772064
0.80322266	47.71186
0.80566406	42.579338
0.80810547	38.676163
0.8105469	37.29538
0.8129883	39.032375
0.8154297	43.451546
0.8178711	49.633812
0.8203125	56.79371
0.8227539	64.43114
0.8251953	72.24204
0.8276367	79.9951
0.8300781	87.43226
0.83251953	94.21573
0.83496094	99.94057
0.83740234	104.21566
0.83984375	106.78565
0.84228516	107.64801
0.84472656	107.11795
0.84716797	105.8039
0.8496094	104.48433
0.8520508	103.90366
0.8544922	104.54179
0.8569336	106.44255
0.859375	109.17784
0.8618164	111.96529
0.8642578	113.88345
0.8666992	114.10818
0.8691406	112.11064
0.87158203	107.7793
0.87402344	101.43856
0.87646484	93.74446
0.87890625	85.4621
0.88134766	77.18538
0.88378906	69.12817
0.88623047	61.133106
0.8886719	52.93174
0.8911133	44.55489
0.8935547	36.78798
0.8959961	31.549482
0.8984375	31.192167
0.9008789	35.74015
0.9033203	42.594948
0.9057617	49.23964
0.9082031	54.13621
0.91064453	56.50129
0.91308594	56.105717
0.91552734	53.19269
0.91796875	48.464005
0.92041016	43.118256
0.92285156	38.88245
0.92529297	37.68466
0.9277344	40.525238
0.9301758	46.702686
0.9326172	54.7144
0.9350586	63.27095
0.9375	71.48801
0.9399414	78.76686
0.9423828	84.68836
0.9448242	88.970566
0.9472656	91.47307
0.94970703	92.222115
0.95214844	91.4258
0.95458984	89.44897
0.95703125	86.73768
0.95947266	83.70589
0.96191406	80.62572
0.96435547	77.562675
0.9667969	74.38125
0.9692383	70.81962
0.9716797	66.607025
0.9741211	61.594288
0.9765625	55.866886
0.9790039	49.816166
0.9814453	44.13675
0.9838867	39.68027
0.9863281	37.079876
0.98876953	36.28505
0.99121094	36.507828
0.99365234	36.70242
0.99609375	36.033672
0.99853516	34.033264
1.0009766	30.576757
1.003418	25.853954
1.0058594	20.473877
1.0083008	15.966446
1.0107422	15.404318
1.0131836	20.208532
1.015625	27.896488
1.0180664	36.281525
1.0205078	44.188717
1.0229492	50.88816
1.0253906	55.893345
1.027832	58.91882
1.0302734	59.87408
1.0327148	58.85727
1.0351562	56.138252
1.0375977	52.126312
1.0400391	47.313183
1.0424805	42.184193
1.0449219	37.10911
1.0473633	32.25268
1.0498047	27.564709
1.0522461	22.8766
1.0546875	18.071476
1.0571289	13.286725
1.0595703	9.277878
1.0620117	8.063668
1.0644531	10.686677
1.0668945	15.040839
1.0693359	19.785864
1.0717773	24.578943
1.0742188	29.38175
1.0766602	34.194378
1.0791016	38.973923
1.081543	43.646137
1.0839844	48.14318
1.0864258	52.4076
1.0888672	56.357502
1.0913086	59.84852
1.09375	62.678593
1.0961914	64.65088
1.0986328	65.66119
1.1010742	65.75872
1.1035156	65.139786
1.105957	64.0845
1.1083984	62.90078
1.1108398	61.953445
1.1132812	61.770752
1.1157227	63.06605
1.1181641	66.465546
1.1206055	72.00683
1.1230469	78.86136
1.1254883	85.562904
1.1279297	90.50984
1.1303711	92.43694
1.1328125	90.7612
1.1352539	85.81809
1.1376953	79.00086
1.1401367	72.717545
1.1425781	69.78495
1.1450195	71.870804
1.1474609	78.23371
1.1499023	86.5811
1.1523438	94.69792
1.1547852	101.11457
1.1572266	105.0662
1.159668	106.31084
1.1621094	105.01341
1.1645508	101.69817
1.1669922	97.19999
1.1694336	92.51135
1.171875	88.4619
1.1743164	85.33077
1.1767578	82.66675
1.1791992	79.517
1.1816406	74.910645
1.184082	68.286
1.1865234	59.72085
1.1889648	50.047546
1.1914062	41.042274
1.1938477	35.658615
1.1962891	36.769356
1.1987305	43.83883
1.2011719	53.790268
1.2036133	64.105835
1.2060547	73.27733
1.2084961	80.45107
1.2109375	85.28482
1.2133789	87.95053
1.2158203	89.13056
1.2182617	89.892525
1.2207031	91.38598
1.2231445	94.43023
1.2255859	99.21783
1.2280273	105.33851
1.2304688	112.0508
1.2329102	118.56312
1.2353516	124.19063
1.237793	128.41327
1.2402344	130.89995
1.2426758	131.53508
1.2451172	130.4329
1.2475586	127.91318
1.25	124.43188
1.2524414	120.4936
1.2548828	116.5837
1.2573242	113.15006
1.2597656	110.6188
1.262207	109.38208
1.2646484	109.70647
1.2670898	111.57777
1.2695312	114.59327
1.2719727	118.00098
1.2744141	120.87452
1.2768555	122.3291
1.2792969	121.69669
1.2817383	118.63492
1.2841797	113.17297
1.2866211	105.70902
1.2890625	96.97387
1.2915039	87.97097
1.2939453	79.889015
1.2963867	73.94735
1.2988281	71.11892
1.3012695	71.7901
1.3037109	75.63681
1.3061523	81.877716
1.3085938	89.64605
1.3110352	98.19615
1.3134766	106.94426
1.315918	115.44491
1.3183594	123.36139
1.3208008	130.43613
1.3232422	136.45789
1.3256836	141.23125
1.328125	144.55666
1.3305664	146.22705
1.3330078	146.04436
1.3354492	143.85603
1.3378906	139.60443
1.340332	133.36601
1.3427734	125.3651
1.3452148	115.95461
1.3476562	105.57531
1.3500977	94.707756
1.3525391	83.82783
1.3549805	73.37122
1.3574219	63.70924
1.3598633	55.137302
1.3623047	47.874176
1.3647461	42.067787
1.3671875	37.811478
1.3696289	35.162617
1.3720703	34.13989
1.3745117	34.677856
1.3769531	36.595146
1.3793945	39.64285
1.3818359	43.58978
1.3842773	48.25319
1.3867188	53.45553
1.3891602	58.957325
1.3916016	64.421936
1.394043	69.435
1.3964844	73.569275
1.3989258	76.46582
1.4013672	77.90324
1.4038086	77.83189
1.40625	76.3665
1.4086914	73.74435
1.4111328	70.26097
1.4135742	66.20073
1.4160156	61.788177
1.418457	57.189285
1.4208984	52.572628
1.4233398	48.19798
1.4257812	44.468407
1.4282227	41.873108
1.4306641	40.79741
1.4331055	41.306538
1.4355469	43.105415
1.4379883	45.71108
1.4404297	48.650505
1.4428711	51.543507
1.4453125	54.0954
1.4477539	56.07027
1.4501953	57.28746
1.4526367	57.645927
1.4550781	57.16264
1.4575195	56.009174
1.4599609	54.523045
1.4624023	53.167873
1.4648438	52.41629
1.4672852	52.57669
1.4697266	53.66592
1.472168	55.43371
1.4746094	57.52831
1.4770508	59.67886
1.4794922	61.798138
1.4819336	63.97751
1.484375	66.396
1.4868164	69.189156
1.4892578	72.34159
1.4916992	75.65592
1.4941406	78.80496
1.496582	81.437096
1.4990234	83.28606
1.5014648	84.251495
1.5039062	84.42736
1.5063477	84.06086
1.5087891	83.44019
1.5112305	82.73732
1.5136719	81.879684
1.5161133	80.54271
1.5185547	78.29647
1.5209961	74.85904
1.5234375	70.37788
1.5258789	65.67843
1.5283203	62.366737
1.5307617	62.4304
1.5332031	67.0696
1.5356445	75.77088
1.5380859	86.85533
1.5405273	98.57768
1.5429688	109.68127
1.5454102	119.49768
1.5478516	127.86742
1.550293	134.96701
1.5527344	141.07005
1.5551758	146.29556
1.5576172	150.44598
1.5600586	153.00374
1.5625	153.27965
1.5649414	150.6368
1.5673828	144.71075
1.5698242	135.5831
1.5722656	123.89685
1.574707	110.91884
1.5771484	98.53443
1.5795898	89.047775
1.5820312	84.49032
1.5844727	85.47583
1.5869141	90.76379
1.5893555	98.25736
1.5917969	106.17585
1.5942383	113.44923
1.5966797	119.60247
1.5991211	124.51899
1.6015625	128.2359
1.6040039	130.79846
1.6064453	132.17224
1.6088867	132.21198
1.6113281	130.68968
1.6137695	127.3572
1.6162109	122.02494
1.6186523	114.62992
1.6210938	105.30177
1.6235352	94.42961
1.6259766	82.73339
1.628418	71.34558
1.6308594	61.856625
1.6333008	56.07822
1.6357422	55.099907
1.6381836	58.224354
1.640625	63.425087
1.6430664	68.70883
1.6455078	72.77449
1.6479492	75.03141
1.6503906	75.47042
1.652832	74.546814
1.6552734	73.05547
1.6577148	71.940414
1.6601562	72.00649
1.6625977	73.61699
1.6650391	76.57174
1.6674805	80.265915
1.6699219	83.98435
1.6723633	87.13817
1.6748047	89.38014
1.6772461	90.62592
1.6796875	91.02258
1.6821289	90.88476
1.6845703	90.60922
1.6870117	90.57608
1.6894531	91.05846
1.6918945	92.15584
1.6943359	93.77749
1.6967773	95.6772
1.6992188	97.52973
1.7016602	99.017815
1.7041016	99.906456
1.706543	100.08969
1.7089844	99.61201
1.7114258	98.66211
1.7138672	97.531654
1.7163086	96.53644
1.71875	95.91337
1.7211914	95.72396
1.7236328	95.799805
1.7260742	95.75287
1.7285156	95.04099
1.730957	93.07139
1.7333984	89.30522
1.7358398	83.34123
1.7382812	74.96353
1.7407227	64.159935
1.7431641	51.124924
1.7456055	36.261086
1.7480469	20.262453
1.7504883	6.586122
1.7529297	16.939718
1.7553711	33.828682
1.7578125	50.597355
1.7602539	66.61552
1.7626953	81.58185
1.7651367	95.26539
1.7675781	107.42325
1.7700195	117.75978
1.7724609	125.93721
1.7749023	131.62361
1.7773438	134.54893
1.7797852	134.54755
1.7822266	131.58505
1.784668	125.78091
1.7871094	117.40578
1.7895508	106.84625
1.7919922	94.54923
1.7944336	80.98642
1.796875	66.65782
1.7993164	52.12446
1.8017578	38.084877
1.8041992	25.6384
1.8066406	17.199406
1.809082	16.579775
1.8115234	21.605352
1.8139648	27.018883
1.8164062	30.6708
1.8188477	31.970242
1.8212891	30.994764
1.8237305	28.355959
1.8261719	25.342686
1.8286133	24.027912
1.8310547	26.308558
1.8334961	32.12039
1.8359375	40.061718
1.8383789	48.9756
1.8408203	58.232533
1.8432617	67.50851
1.8457031	76.585236
1.8481445	85.22089
1.8505859	93.08263
1.8530273	99.760284
1.8554688	104.84557
1.8579102	108.02915
1.8603516	109.16556
1.862793	108.29317
1.8652344	105.62196
1.8676758	101.50277
1.8701172	96.3783
1.8725586	90.71805
1.875	84.95607
1.8774414	79.450775
1.8798828	74.46787
1.8823242	70.168816
1.8847656	66.597305
1.887207	63.68256
1.8896484	61.27427
1.8920898	59.200783
1.8945312	57.315765
1.8969727	55.513374
1.8994141	53.71906
1.9018555	51.878155
1.9042969	49.960976
1.9067383	47.97849
1.9091797	45.998478
1.9116211	44.14463
1.9140625	42.575165
1.9165039	41.43425
1.9189453	40.796387
1.9213867	40.64058
1.9238281	40.898968
1.9262695	41.568336
1.9287109	42.7989
1.9311523	44.866627
1.9335938	48.01383
1.9360352	52.258675
1.9384766	57.3114
1.940918	62.630745
1.9433594	67.55575
1.9458008	71.45449
1.9482422	73.863014
1.9506836	74.59486
1.953125	73.80917
1.9555664	72.025246
1.9580078	70.06415
1.9604492	68.857285
1.9628906	69.081635
1.965332	70.78188
1.9677734	73.29877
1.9702148	75.58028
1.9726562	76.58488
1.9750977	75.53613
1.9775391	72.02574
1.9799805	66.04152
1.9824219	57.95089
1.9848633	48.43406
1.9873047	38.389755
1.9897461	28.887142
1.9921875	21.252832
1.9946289	17.179825
1.9970703	17.641266
1.9995117	21.345755
2.0019531	26.698284
2.0043945	33.042286
2.006836	40.04852
2.0092773	47.28399
2.0117188	54.161777
2.0141602	60.040176
2.0166016	64.33903
2.019043	66.641304
2.0214844	66.770454
2.0239258	64.83804
2.0263672	61.246586
2.0288086	56.649025
2.03125	51.87097
2.0336914	47.769238
2.0361328	44.97913
2.0385742	43.622242
2.0410156	43.24566
2.043457	43.11279
2.0458984	42.58098
2.0483398	41.298695
2.0507812	39.22992
2.0532227	36.614056
2.055664	33.9035
2.0581055	31.659071
2.0605469	30.372093
2.0629883	30.270678
2.0654297	31.267672
2.067871	33.091297
2.0703125	35.45476
2.072754	38.142498
2.0751953	41.01677
2.0776367	43.98321
2.0800781	46.939625
2.0825195	49.740463
2.084961	52.201065
2.0874023	54.14198
2.0898438	55.447506
2.0922852	56.116924
2.0947266	56.292362
2.097168	56.25408
2.0996094	56.369904
2.1020508	56.99472
2.1044922	58.349415
2.1069336	60.44951
2.109375	63.14416
2.1118164	66.229225
2.1142578	69.53767
2.1166992	72.958565
2.1191406	76.41121
2.121582	79.81611
2.1240234	83.07035
2.1264648	86.03401
2.1289062	88.5459
2.1313477	90.46356
2.133789	91.69641
2.1362305	92.20291
2.1386719	91.96927
2.1411133	91.00721
2.1435547	89.376144
2.145996	87.213234
2.1484375	84.749344
2.150879	82.303764
2.1533203	80.24376
2.1557617	78.88158
2.1582031	78.32769
2.1606445	78.38996
2.163086	78.60917
2.1655273	78.407814
2.1679688	77.259
2.1704102	74.81477
2.1728516	70.99034
2.175293	66.00978
2.1777344	60.40538
2.1801758	54.956913
2.1826172	50.54002
2.1850586	47.847355
2.1875	47.04464
2.1899414	47.645546
2.1923828	48.787586
2.1948242	49.655853
2.1972656	49.74134
2.199707	48.893627
2.2021484	47.272224
2.2045898	45.268185
2.2070312	43.40151
2.2094727	42.17389
2.211914	41.915043
2.2143555	42.72491
2.2167969	44.544273
2.2192383	47.25041
2.2216797	50.68084
2.224121	54.603386
2.2265625	58.69033
2.229004	62.52388
2.2314453	65.64667
2.2338867	67.657196
2.2363281	68.31671
2.2387695	67.62494
2.241211	65.83905
2.2436523	63.440163
2.2460938	61.046307
2.2485352	59.251217
2.2509766	58.41459
2.253418	58.51749
2.2558594	59.20026
2.2583008	59.942257
2.2607422	60.244175
2.2631836	59.736477
2.265625	58.222622
2.2680664	55.68276
2.2705078	52.254894
2.2729492	48.207157
2.2753906	43.91307
2.277832	39.818203
2.2802734	36.36754
2.2827148	33.872578
2.2851562	32.370567
2.2875977	31.600506
2.290039	31.144556
2.2924805	30.631016
2.2949219	29.882893
2.2973633	28.975626
2.2998047	28.205105
2.302246	27.959417
2.3046875	28.51992
2.307129	29.902702
2.3095703	31.860035
2.3120117	34.02161
2.3144531	36.04226
2.3168945	37.681602
2.319336	38.815845
2.3217773	39.419117
2.3242188	39.53954
2.3266602	39.281372
2.3291016	38.784416
2.331543	38.195282
2.3339844	37.634495
2.3364258	37.17023
2.3388672	36.805576
2.3413086	36.487957
2.34375	36.139828
2.3461914	35.692852
2.3486328	35.106262
2.3510742	34.360214
2.3535156	33.43686
2.355957	32.304646
2.3583984	30.91789
2.3608398	29.231575
2.3632812	27.226892
2.3657227	24.93342
2.368164	22.438232
2.3706055	19.87616
2.3730469	17.403805
2.3754883	15.162036
2.3779297	13.236187
2.380371	11.632979
2.3828125	10.298991
2.385254	9.18628
2.3876953	8.343827
2.3901367	7.981688
2.3925781	8.39509
2.3950195	9.703056
2.397461	11.72134
2.3999023	14.12085
2.4023438	16.571999
2.4047852	18.784168
2.4072266	20.516273
2.409668	21.59452
2.4121094	21.943016
2.4145508	21.622335
2.4169922	20.873755
2.4194336	20.141912
2.421875	20.003521
2.4243164	20.915936
2.4267578	22.915064
2.4291992	25.600239
2.4316406	28.388947
2.434082	30.73308
2.4365234	32.202778
2.4389648	32.50067
2.4414062	31.451921
2.4438477	28.989346
2.446289	25.141037
2.4487305	20.022406
2.4511719	13.836261
2.4536133	6.9390755
2.4560547	2.6229012
2.458496	9.358763
2.4609375	17.026655
2.463379	24.3609
2.4658203	31.044716
2.4682617	36.91425
2.4707031	41.947205
2.4731445	46.25992
