
X-Axis: Frequency (hz)
Y-Axis: Fourier Amplitude (cm/s)
Number of Data Sets: 4


DATASET #1

Name: FAS H1 (cm/s)
Num Points: 2044
Info: 

X, Y Data:
0.009765625	0.47921765
0.012207031	0.66256416
0.014648438	0.8806347
0.017089844	1.1349872
0.01953125	1.4258584
0.021972656	1.7517018
0.024414062	2.108641
0.026855469	2.4900444
0.029296875	2.8863616
0.03173828	3.2853458
0.034179688	3.672785
0.036621094	4.0338774
0.0390625	4.354951
0.041503906	4.6251016
0.043945312	4.8373833
0.04638672	4.9892035
0.048828125	5.081906
0.05126953	5.1195517
0.053710938	5.1071568
0.056152344	5.0491686
0.05859375	4.9487705
0.061035156	4.8082666
0.06347656	4.6301374
0.06591797	4.4181376
0.068359375	4.177972
0.07080078	3.9173596
0.07324219	3.6452332
0.075683594	3.3703728
0.078125	3.0997138
0.080566406	2.8373075
0.08300781	2.5843656
0.08544922	2.3409488
0.087890625	2.1095223
0.09033203	1.9010597
0.09277344	1.7435868
0.095214844	1.6878134
0.09765625	1.792863
0.10009766	2.0886128
0.10253906	2.561496
0.10498047	3.179688
0.10742188	3.9137201
0.10986328	4.7397976
0.11230469	5.6369896
0.11474609	6.584412
0.1171875	7.559246
0.11962891	8.535791
0.12207031	9.485672
0.12451172	10.378887
0.12695312	11.185325
0.12939453	11.876409
0.13183594	12.426816
0.13427734	12.816194
0.13671875	13.030467
0.13916016	13.062339
0.14160156	12.910961
0.14404297	12.581045
0.14648438	12.082013
0.14892578	11.427373
0.15136719	10.634176
0.1538086	9.722678
0.15625	8.716452
0.1586914	7.6431937
0.16113281	6.5361743
0.16357422	5.436949
0.16601562	4.401141
0.16845703	3.5117774
0.17089844	2.8991566
0.17333984	2.7168303
0.17578125	2.9945138
0.17822266	3.585019
0.18066406	4.330856
0.18310547	5.1419353
0.18554688	5.9726057
0.18798828	6.794486
0.19042969	7.5818415
0.1928711	8.305438
0.1953125	8.931306
0.1977539	9.422697
0.20019531	9.743914
0.20263672	9.864907
0.20507812	9.7658415
0.20751953	9.44046
0.20996094	8.897345
0.21240234	8.158398
0.21484375	7.2546625
0.21728516	6.220657
0.21972656	5.0891585
0.22216797	3.8885572
0.22460938	2.644646
0.22705078	1.3913703
0.22949219	0.3603166
0.2319336	1.2008629
0.234375	2.3055532
0.2368164	3.2769704
0.23925781	4.0456467
0.24169922	4.5615325
0.24414062	4.7925334
0.24658203	4.728364
0.24902344	4.3840055
0.25146484	3.8066816
0.25390625	3.1006007
0.25634766	2.5041082
0.25878906	2.463856
0.26123047	3.1931286
0.26367188	4.3636355
0.26611328	5.65245
0.2685547	6.870772
0.2709961	7.8989835
0.2734375	8.663243
0.2758789	9.133873
0.2783203	9.326395
0.28076172	9.297904
0.28320312	9.137076
0.28564453	8.948766
0.28808594	8.8353615
0.29052734	8.878256
0.29296875	9.122898
0.29541016	9.571178
0.29785156	10.183758
0.30029297	10.89193
0.30273438	11.616176
0.30517578	12.287714
0.3076172	12.869396
0.3100586	13.371696
0.3125	13.857736
0.3149414	14.429277
0.3173828	15.18966
0.31982422	16.193678
0.32226562	17.41166
0.32470703	18.729504
0.32714844	19.980019
0.32958984	20.984434
0.33203125	21.5881
0.33447266	21.68451
0.33691406	21.226782
0.33935547	20.225864
0.34179688	18.736597
0.34423828	16.834675
0.3466797	14.592792
0.3491211	12.067989
0.3515625	9.315803
0.3540039	6.464159
0.3564453	4.0339074
0.35888672	3.8788362
0.36132812	6.315437
0.36376953	9.340409
0.36621094	12.13303
0.36865234	14.311103
0.37109375	15.613403
0.37353516	15.872081
0.37597656	15.038351
0.37841797	13.23171
0.38085938	10.839427
0.38330078	8.7457
0.3857422	8.422599
0.3881836	10.378926
0.390625	13.34728
0.3930664	16.14304
0.3955078	18.121254
0.39794922	18.962383
0.40039062	18.566193
0.40283203	17.013933
0.40527344	14.562189
0.40771484	11.693181
0.41015625	9.303055
0.41259766	8.796562
0.41503906	10.700395
0.41748047	13.849301
0.41992188	17.128347
0.42236328	19.925997
0.4248047	21.896221
0.4272461	22.842321
0.4296875	22.683022
0.4321289	21.438503
0.4345703	19.213753
0.43701172	16.178125
0.43945312	12.559512
0.44189453	8.717765
0.44433594	5.6184773
0.44677734	5.866328
0.44921875	9.378308
0.45166016	13.688724
0.45410156	17.852116
0.45654297	21.437374
0.45898438	24.137295
0.46142578	25.707922
0.4638672	25.967339
0.4663086	24.806692
0.46875	22.205254
0.4711914	18.249613
0.4736328	13.165569
0.47607422	7.445298
0.47851562	3.5162013
0.48095703	7.567401
0.48339844	13.316301
0.48583984	18.345453
0.48828125	22.078932
0.49072266	24.236889
0.49316406	24.7542
0.49560547	23.773277
0.49804688	21.625706
0.5004883	18.791613
0.5029297	15.828296
0.5053711	13.246476
0.5078125	11.31786
0.5102539	9.917007
0.5126953	8.621469
0.5151367	7.0144362
0.5175781	4.875957
0.52001953	2.1945715
0.52246094	0.9389194
0.52490234	4.2051134
0.52734375	7.388616
0.52978516	10.177757
0.53222656	12.308768
0.53466797	13.606471
0.5371094	14.029597
0.5395508	13.689475
0.5419922	12.819706
0.5444336	11.681519
0.546875	10.424388
0.5493164	8.994489
0.5517578	7.199626
0.5541992	4.9295516
0.5566406	2.7059314
0.55908203	3.477109
0.56152344	6.6394553
0.56396484	9.84946
0.56640625	12.384477
0.56884766	13.849072
0.57128906	14.035918
0.57373047	12.931669
0.5761719	10.765752
0.5786133	8.2174015
0.5810547	7.0139647
0.5834961	8.97019
0.5859375	12.848549
0.5883789	16.982664
0.5908203	20.553175
0.5932617	23.169298
0.5957031	24.717104
0.59814453	25.320843
0.60058594	25.297495
0.60302734	25.058628
0.60546875	24.952654
0.60791016	25.110289
0.61035156	25.409111
0.61279297	25.587048
0.6152344	25.397058
0.6176758	24.690168
0.6201172	23.410587
0.6225586	21.551056
0.625	19.125256
0.6274414	16.18483
0.6298828	12.868548
0.6323242	9.452319
0.6347656	6.3879375
0.63720703	4.3237367
0.63964844	3.6810894
0.64208984	3.654166
0.64453125	3.2270093
0.64697266	2.157834
0.64941406	1.0293607
0.65185547	1.890088
0.6542969	3.2697296
0.6567383	4.0738144
0.6591797	4.1272073
0.6616211	3.8472497
0.6640625	4.4228554
0.6665039	6.418988
0.6689453	9.026135
0.6713867	11.427687
0.6738281	13.126608
0.67626953	13.943391
0.67871094	14.04949
0.68115234	13.942505
0.68359375	14.216856
0.68603516	15.115806
0.68847656	16.314234
0.69091797	17.228827
0.6933594	17.432915
0.6958008	16.874605
0.6982422	15.939273
0.7006836	15.349212
0.703125	15.749809
0.7055664	17.178738
0.7080078	19.146782
0.7104492	21.186628
0.7128906	23.12962
0.71533203	25.030937
0.71777344	26.965374
0.72021484	28.8707
0.72265625	30.517641
0.72509766	31.57813
0.72753906	31.730633
0.72998047	30.768106
0.7324219	28.685463
0.7348633	25.712898
0.7373047	22.271317
0.7397461	18.861588
0.7421875	15.933049
0.7446289	13.783126
0.7470703	12.523113
0.7495117	12.128468
0.7519531	12.547142
0.75439453	13.75352
0.75683594	15.673461
0.75927734	18.092346
0.76171875	20.679367
0.76416016	23.08858
0.76660156	25.023247
0.76904297	26.219635
0.7714844	26.398342
0.7739258	25.265087
0.7763672	22.592024
0.7788086	18.330908
0.78125	12.681928
0.7836914	6.101101
0.7861328	1.6885191
0.7885742	8.135866
0.7910156	14.313269
0.79345703	19.334024
0.79589844	22.771729
0.79833984	24.341824
0.80078125	24.016882
0.80322266	22.248913
0.80566406	20.261799
0.80810547	19.992277
0.8105469	22.586939
0.8129883	26.995323
0.8154297	31.32226
0.8178711	34.19482
0.8203125	35.063793
0.8227539	34.30157
0.8251953	33.266193
0.8276367	33.88199
0.8300781	37.227585
0.83251953	42.481544
0.83496094	47.799263
0.83740234	51.548035
0.83984375	52.760765
0.84228516	51.174072
0.84472656	47.165154
0.84716797	41.6532
0.8496094	35.93899
0.8520508	31.38752
0.8544922	28.851429
0.8569336	28.166988
0.859375	28.459848
0.8618164	28.926584
0.8642578	29.138596
0.8666992	28.88931
0.8691406	28.039606
0.87158203	26.574457
0.87402344	24.826277
0.87646484	23.671005
0.87890625	24.289478
0.88134766	27.2115
0.88378906	31.7539
0.88623047	36.690384
0.8886719	40.964104
0.8911133	43.894947
0.8935547	45.166965
0.8959961	44.76839
0.8984375	42.93085
0.9008789	40.085854
0.9033203	36.839874
0.9057617	33.93036
0.9082031	32.0849
0.91064453	31.741652
0.91308594	32.821854
0.91552734	34.838753
0.91796875	37.224533
0.92041016	39.53842
0.92285156	41.48703
0.92529297	42.875946
0.9277344	43.579716
0.9301758	43.53714
0.9326172	42.73705
0.9350586	41.180637
0.9375	38.85223
0.9399414	35.74207
0.9423828	31.919855
0.9448242	27.60413
0.9472656	23.169804
0.94970703	19.07686
0.95214844	15.751585
0.95458984	13.474029
0.95703125	12.315344
0.95947266	12.139503
0.96191406	12.656725
0.96435547	13.505759
0.9667969	14.341001
0.9692383	14.91049
0.9716797	15.122152
0.9741211	15.099677
0.9765625	15.207315
0.9790039	15.954002
0.9814453	17.68998
0.9838867	20.311626
0.9863281	23.312376
0.98876953	26.045362
0.99121094	27.92921
0.99365234	28.557096
0.99609375	27.74132
0.99853516	25.50111
1.0009766	22.007275
1.003418	17.52035
1.0058594	12.391948
1.0083008	7.3571725
1.0107422	5.427602
1.0131836	9.311263
1.015625	14.699442
1.0180664	19.811434
1.0205078	24.155481
1.0229492	27.568687
1.0253906	30.074354
1.027832	31.809399
1.0302734	32.94644
1.0327148	33.62292
1.0351562	33.9035
1.0375977	33.799923
1.0400391	33.360207
1.0424805	32.800373
1.0449219	32.59149
1.0473633	33.35526
1.0498047	35.509087
1.0522461	38.94311
1.0546875	43.09622
1.0571289	47.30082
1.0595703	51.03902
1.0620117	54.004295
1.0644531	56.043243
1.0668945	57.075565
1.0693359	57.057995
1.0717773	56.00808
1.0742188	54.056496
1.0766602	51.475605
1.0791016	48.642796
1.081543	45.925995
1.0839844	43.522938
1.0864258	41.343075
1.0888672	39.030514
1.0913086	36.13089
1.09375	32.300434
1.0961914	27.460243
1.0986328	21.894974
1.1010742	16.421333
1.1035156	12.85534
1.105957	13.550457
1.1083984	17.752842
1.1108398	22.957945
1.1132812	27.788351
1.1157227	31.643314
1.1181641	34.286804
1.1206055	35.70966
1.1230469	36.054913
1.1254883	35.53968
1.1279297	34.375305
1.1303711	32.711727
1.1328125	30.624678
1.1352539	28.145777
1.1376953	25.31971
1.1401367	22.269846
1.1425781	19.260626
1.1450195	16.73526
1.1474609	15.252865
1.1499023	15.197132
1.1523438	16.451277
1.1547852	18.555311
1.1572266	21.105553
1.159668	23.892227
1.1621094	26.83584
1.1645508	29.90121
1.1669922	33.052925
1.1694336	36.25497
1.171875	39.49002
1.1743164	42.76352
1.1767578	46.074223
1.1791992	49.363834
1.1816406	52.489918
1.184082	55.24944
1.1865234	57.443985
1.1889648	58.948982
1.1914062	59.7584
1.1938477	59.99255
1.1962891	59.866364
1.1987305	59.616356
1.2011719	59.409023
1.2036133	59.2835
1.2060547	59.17553
1.2084961	59.00807
1.2109375	58.77883
1.2133789	58.58213
1.2158203	58.564255
1.2182617	58.848125
1.2207031	59.470116
1.2231445	60.346325
1.2255859	61.278618
1.2280273	62.003532
1.2304688	62.271812
1.2329102	61.923515
1.2353516	60.92204
1.237793	59.337025
1.2402344	57.298405
1.2426758	54.956535
1.2451172	52.4676
1.2475586	49.994934
1.25	47.702663
1.2524414	45.726933
1.2548828	44.135445
1.2573242	42.89904
1.2597656	41.893375
1.262207	40.928913
1.2646484	39.795147
1.2670898	38.30342
1.2695312	36.317413
1.2719727	33.767963
1.2744141	30.654266
1.2768555	27.040422
1.2792969	23.057785
1.2817383	18.918081
1.2841797	14.947645
1.2866211	11.681355
1.2890625	10.009679
1.2915039	10.769145
1.2939453	13.654466
1.2963867	17.778893
1.2988281	22.544998
1.3012695	27.582344
1.3037109	32.591114
1.3061523	37.28986
1.3085938	41.410378
1.3110352	44.712757
1.3134766	47.006577
1.315918	48.16994
1.3183594	48.15917
1.3208008	47.006695
1.3232422	44.809685
1.3256836	41.714092
1.328125	37.899513
1.3305664	33.56985
1.3330078	28.949606
1.3354492	24.278437
1.3378906	19.794954
1.340332	15.703563
1.3427734	12.129006
1.3452148	9.081546
1.3476562	6.480612
1.3500977	4.3220167
1.3525391	3.1693733
1.3549805	4.0099206
1.3574219	5.9682393
1.3598633	7.976791
1.3623047	9.552962
1.3647461	10.432573
1.3671875	10.48973
1.3696289	9.733935
1.3720703	8.320745
1.3745117	6.617991
1.3769531	5.4532504
1.3793945	6.0899396
1.3818359	8.574837
1.3842773	11.995015
1.3867188	15.792461
1.3891602	19.66598
1.3916016	23.390743
1.394043	26.763384
1.3964844	29.594784
1.3989258	31.717
1.4013672	32.996883
1.4038086	33.35332
1.40625	32.778175
1.4086914	31.357355
1.4111328	29.288267
1.4135742	26.893444
1.4160156	24.626865
1.418457	23.042664
1.4208984	22.658146
1.4233398	23.717165
1.4257812	26.091642
1.4282227	29.47701
1.4306641	33.638226
1.4331055	38.48543
1.4355469	44.007374
1.4379883	50.163857
1.4404297	56.81583
1.4428711	63.719242
1.4453125	70.565895
1.4477539	77.03803
1.4501953	82.85534
1.4526367	87.80319
1.4550781	91.74086
1.4575195	94.59374
1.4599609	96.338005
1.4624023	96.99025
1.4648438	96.60756
1.4672852	95.29654
1.4697266	93.22325
1.472168	90.608665
1.4746094	87.70691
1.4770508	84.76456
1.4794922	81.97446
1.4819336	79.44088
1.484375	77.17334
1.4868164	75.11256
1.4892578	73.17508
1.4916992	71.29193
1.4941406	69.42791
1.496582	67.57984
1.4990234	65.7621
1.5014648	63.992588
1.5039062	62.282764
1.5063477	60.632797
1.5087891	59.028828
1.5112305	57.441364
1.5136719	55.829838
1.5161133	54.15663
1.5185547	52.41241
1.5209961	50.644463
1.5234375	48.97687
1.5258789	47.603653
1.5283203	46.741573
1.5307617	46.54577
1.5332031	47.0279
1.5356445	48.031883
1.5380859	49.28913
1.5405273	50.515766
1.5429688	51.495792
1.5454102	52.117035
1.5478516	52.35919
1.550293	52.253372
1.5527344	51.843353
1.5551758	51.174793
1.5576172	50.320698
1.5600586	49.422714
1.5625	48.706863
1.5649414	48.43635
1.5673828	48.803547
1.5698242	49.82037
1.5722656	51.28926
1.574707	52.875736
1.5771484	54.22843
1.5795898	55.077347
1.5820312	55.28413
1.5844727	54.850796
1.5869141	53.906406
1.5893555	52.68393
1.5917969	51.484425
1.5942383	50.6179
1.5966797	50.316124
1.5991211	50.646336
1.6015625	51.47504
1.6040039	52.512764
1.6064453	53.410202
1.6088867	53.852245
1.6113281	53.615353
1.6137695	52.588474
1.6162109	50.769535
1.6186523	48.248043
1.6210938	45.177998
1.6235352	41.743603
1.6259766	38.12247
1.628418	34.45083
1.6308594	30.800018
1.6333008	27.169107
1.6357422	23.498222
1.6381836	19.69685
1.640625	15.677891
1.6430664	11.391636
1.6455078	6.872255
1.6479492	2.5702515
1.6503906	3.7766795
1.652832	8.436936
1.6552734	13.068997
1.6577148	17.294956
1.6601562	20.920403
1.6625977	23.85129
1.6650391	26.117615
1.6674805	27.883678
1.6699219	29.411366
1.6723633	30.966093
1.6748047	32.70061
1.6772461	34.595173
1.6796875	36.499935
1.6821289	38.24819
1.6845703	39.76623
1.6870117	41.132923
1.6894531	42.56843
1.6918945	44.34998
1.6943359	46.676483
1.6967773	49.548595
1.6992188	52.73665
1.7016602	55.851845
1.7041016	58.463875
1.706543	60.203247
1.7089844	60.819843
1.7114258	60.203716
1.7138672	58.382725
1.7163086	55.507603
1.71875	51.828117
1.7211914	47.66288
1.7236328	43.362095
1.7260742	39.266987
1.7285156	35.659874
1.730957	32.710392
1.7333984	30.436188
1.7358398	28.710295
1.7382812	27.32594
1.7407227	26.083315
1.7431641	24.8489
1.7456055	23.568527
1.7480469	22.246672
1.7504883	20.91479
1.7529297	19.606213
1.7553711	18.342913
1.7578125	17.132637
1.7602539	15.972198
1.7626953	14.852617
1.7651367	13.767237
1.7675781	12.721134
1.7700195	11.740656
1.7724609	10.87813
1.7749023	10.21055
1.7773438	9.830566
1.7797852	9.821226
1.7822266	10.212879
1.784668	10.949561
1.7871094	11.903536
1.7895508	12.933404
1.7919922	13.945244
1.7944336	14.923521
1.796875	15.91342
1.7993164	16.957005
1.8017578	18.016176
1.8041992	18.933886
1.8066406	19.459538
1.809082	19.321495
1.8115234	18.308432
1.8139648	16.331026
1.8164062	13.449024
1.8188477	9.863177
1.8212891	5.881923
1.8237305	1.8939123
1.8261719	1.9070766
1.8286133	4.908098
1.8310547	7.0323057
1.8334961	8.121051
1.8359375	8.154544
1.8383789	7.229331
1.8408203	5.567538
1.8432617	3.7157702
1.8457031	3.5262277
1.8481445	6.1589684
1.8505859	10.000305
1.8530273	14.333753
1.8554688	18.841993
1.8579102	23.231783
1.8603516	27.189478
1.862793	30.40997
1.8652344	32.640213
1.8676758	33.71471
1.8701172	33.57008
1.8725586	32.240955
1.875	29.84248
1.8774414	26.54695
1.8798828	22.56208
1.8823242	18.124031
1.8847656	13.524199
1.887207	9.232648
1.8896484	6.3353453
1.8920898	6.585909
1.8945312	9.10289
1.8969727	11.888808
1.8994141	14.146996
1.9018555	15.587013
1.9042969	16.0969
1.9067383	15.668025
1.9091797	14.376941
1.9116211	12.378537
1.9140625	9.911888
1.9165039	7.3670225
1.9189453	5.5379367
1.9213867	5.666431
1.9238281	7.620849
1.9262695	10.168907
1.9287109	12.636414
1.9311523	14.725873
1.9335938	16.267744
1.9360352	17.14213
1.9384766	17.267221
1.940918	16.61189
1.9433594	15.208639
1.9458008	13.154131
1.9482422	10.595665
1.9506836	7.7144485
1.953125	4.729783
1.9555664	2.1364784
1.9580078	2.4805636
1.9604492	4.9447937
1.9628906	7.4164953
1.965332	9.6068945
1.9677734	11.417542
1.9702148	12.795994
1.9726562	13.733859
1.9750977	14.275958
1.9775391	14.51736
1.9799805	14.577811
1.9824219	14.560316
1.9848633	14.516436
1.9873047	14.444712
1.9897461	14.321892
1.9921875	14.138233
1.9946289	13.914033
1.9970703	13.693764
1.9995117	13.527894
2.0019531	13.445685
2.0043945	13.428095
2.006836	13.403228
2.0092773	13.27755
2.0117188	12.981137
2.0141602	12.497014
2.0166016	11.862597
2.019043	11.155581
2.0214844	10.4758
2.0239258	9.920991
2.0263672	9.561579
2.0288086	9.426342
2.03125	9.504578
2.0336914	9.742499
2.0361328	10.039782
2.0385742	10.280809
2.0410156	10.423966
2.043457	10.610748
2.0458984	11.201694
2.0483398	12.60205
2.0507812	14.949287
2.0532227	18.031971
2.055664	21.475107
2.0581055	24.908615
2.0605469	28.038124
2.0629883	30.664406
2.0654297	32.675396
2.067871	34.020054
2.0703125	34.678032
2.072754	34.641163
2.0751953	33.91112
2.0776367	32.508297
2.0800781	30.483353
2.0825195	27.928617
2.084961	24.987246
2.0874023	21.85746
2.0898438	18.790728
2.0922852	16.088234
2.0947266	14.094788
2.097168	13.140989
2.0996094	13.38032
2.1020508	14.661349
2.1044922	16.644253
2.1069336	18.991297
2.109375	21.433672
2.1118164	23.764236
2.1142578	25.82934
2.1166992	27.53601
2.1191406	28.861408
2.121582	29.8517
2.1240234	30.611158
2.1264648	31.288733
2.1289062	32.060345
2.1313477	33.089993
2.133789	34.470474
2.1362305	36.1751
2.1386719	38.054497
2.1411133	39.872192
2.1435547	41.357204
2.145996	42.25919
2.1484375	42.402233
2.150879	41.722717
2.1533203	40.279377
2.1557617	38.230194
2.1582031	35.78692
2.1606445	33.16273
2.163086	30.529505
2.1655273	27.992735
2.1679688	25.591896
2.1704102	23.331251
2.1728516	21.234663
2.175293	19.38847
2.1777344	17.931492
2.1801758	16.985863
2.1826172	16.575062
2.1850586	16.595577
2.1875	16.860992
2.1899414	17.173262
2.1923828	17.377945
2.1948242	17.391457
2.1972656	17.203503
2.199707	16.857443
2.2021484	16.41791
2.2045898	15.944467
2.2070312	15.48754
2.2094727	15.101451
2.211914	14.854281
2.2143555	14.814977
2.2167969	15.018832
2.2192383	15.43421
2.2216797	15.956579
2.224121	16.435383
2.2265625	16.715246
2.229004	16.671139
2.2314453	16.229435
2.2338867	15.374271
2.2363281	14.141465
2.2387695	12.604974
2.241211	10.862424
2.2436523	9.023399
2.2460938	7.2038674
2.2485352	5.524428
2.2509766	4.1091604
2.253418	3.069241
2.2558594	2.4364662
2.2583008	2.0729127
2.2607422	1.7356813
2.2631836	1.2502233
2.265625	0.5724347
2.2680664	0.37277046
2.2705078	1.2805291
2.2729492	2.1784804
2.2753906	2.9193428
2.277832	3.4023428
2.2802734	3.5688405
2.2827148	3.4121644
2.2851562	2.9812167
2.2875977	2.3852863
2.290039	1.8220161
2.2924805	1.6164731
2.2949219	1.9513451
2.2973633	2.5938838
2.2998047	3.3359292
2.302246	4.118116
2.3046875	4.9426537
2.307129	5.824832
2.3095703	6.7770643
2.3120117	7.8099623
2.3144531	8.937753
2.3168945	10.176569
2.319336	11.531296
2.3217773	12.978281
2.3242188	14.458158
2.3266602	15.886132
2.3291016	17.174192
2.331543	18.252277
2.3339844	19.08036
2.3364258	19.647808
2.3388672	19.963758
2.3413086	20.041859
2.34375	19.887081
2.3461914	19.490763
2.3486328	18.838345
2.3510742	17.925163
2.3535156	16.77404
2.355957	15.447103
2.3583984	14.048436
2.3608398	12.714629
2.3632812	11.590535
2.3657227	10.787538
2.368164	10.333602
2.3706055	10.153292
2.3730469	10.101784
2.3754883	10.026589
2.3779297	9.811921
2.380371	9.395015
2.3828125	8.767824
2.385254	7.9740095
2.3876953	7.1059265
2.3901367	6.300683
2.3925781	5.724449
2.3950195	5.5160556
2.397461	5.6956487
2.3999023	6.143875
2.4023438	6.6887784
2.4047852	7.1867833
2.4072266	7.5465355
2.409668	7.7285333
2.4121094	7.7426877
2.4145508	7.64777
2.4169922	7.5469394
2.4194336	7.5678005
2.421875	7.8172355
2.4243164	8.329664
2.4267578	9.053068
2.4291992	9.883678
2.4316406	10.709696
2.434082	11.436158
2.4365234	11.991818
2.4389648	12.327799
2.4414062	12.414824
2.4438477	12.242125
2.446289	11.818814
2.4487305	11.17793
