
X-Axis: Frequency (hz)
Y-Axis: Fourier Amplitude (cm/s)
Number of Data Sets: 4


DATASET #1

Name: FAS H1 (cm/s)
Num Points: 2044
Info: 

X, Y Data:
0.009765625	0.24010059
0.012207031	0.3033087
0.014648438	0.32571447
0.017089844	0.28668347
0.01953125	0.19041707
0.021972656	0.2997055
0.024414062	0.70505
0.026855469	1.2509806
0.029296875	1.8830447
0.03173828	2.5555809
0.034179688	3.2115428
0.036621094	3.784409
0.0390625	4.216261
0.041503906	4.4825954
0.043945312	4.604517
0.04638672	4.6341653
0.048828125	4.621735
0.05126953	4.5801725
0.053710938	4.467177
0.056152344	4.208472
0.05859375	3.7502964
0.061035156	3.1071405
0.06347656	2.390582
0.06591797	1.7985305
0.068359375	1.5377977
0.07080078	1.7438664
0.07324219	2.4704294
0.075683594	3.6358423
0.078125	5.045967
0.080566406	6.488511
0.08300781	7.8017645
0.08544922	8.899739
0.087890625	9.753592
0.09033203	10.364003
0.09277344	10.780808
0.095214844	11.176054
0.09765625	11.874258
0.10009766	13.200837
0.10253906	15.212878
0.10498047	17.6256
0.10742188	19.983044
0.10986328	21.836742
0.11230469	22.856289
0.11474609	22.95085
0.1171875	22.448524
0.11962891	22.183987
0.12207031	23.06569
0.12451172	25.118963
0.12695312	27.266737
0.12939453	28.20466
0.13183594	27.209255
0.13427734	24.44497
0.13671875	20.896166
0.13916016	17.998932
0.14160156	17.097345
0.14404297	18.99205
0.14648438	23.660238
0.14892578	30.136333
0.15136719	36.805656
0.1538086	41.981884
0.15625	44.459133
0.1586914	43.84358
0.16113281	40.5598
0.16357422	35.562088
0.16601562	29.920595
0.16845703	24.49261
0.17089844	19.789778
0.17333984	15.999136
0.17578125	13.083209
0.17822266	10.959333
0.18066406	9.662042
0.18310547	9.194963
0.18554688	9.169827
0.18798828	8.908292
0.19042969	7.934311
0.1928711	6.41136
0.1953125	5.6466055
0.1977539	7.0856595
0.20019531	9.5292
0.20263672	11.303576
0.20507812	11.658473
0.20751953	10.654475
0.20996094	8.992604
0.21240234	7.6797123
0.21484375	7.630208
0.21728516	9.308097
0.21972656	12.282261
0.22216797	15.32661
0.22460938	17.10426
0.22705078	16.949898
0.22949219	15.561765
0.2319336	15.044558
0.234375	16.81331
0.2368164	19.677586
0.23925781	22.061651
0.24169922	23.362453
0.24414062	23.141663
0.24658203	20.44698
0.24902344	14.420579
0.25146484	6.692329
0.25390625	11.229778
0.25634766	22.62032
0.25878906	31.972734
0.26123047	37.158333
0.26367188	38.012917
0.26611328	35.69373
0.2685547	31.648138
0.2709961	26.73074
0.2734375	21.311237
0.2758789	16.066963
0.2783203	12.483382
0.28076172	12.64166
0.28320312	17.151743
0.28564453	24.24523
0.28808594	31.481049
0.29052734	36.637543
0.29296875	38.85587
0.29541016	39.788784
0.29785156	42.983795
0.30029297	49.933548
0.30273438	57.883495
0.30517578	62.909702
0.3076172	62.69537
0.3100586	57.36723
0.3125	49.6336
0.3149414	44.324932
0.3173828	45.08658
0.31982422	49.626072
0.32226562	52.5247
0.32470703	50.094833
0.32714844	41.39066
0.32958984	27.89669
0.33203125	12.975687
0.33447266	3.4587066
0.33691406	8.177529
0.33935547	8.464229
0.34179688	8.365452
0.34423828	17.6111
0.3466797	28.825294
0.3491211	35.647736
0.3515625	35.062004
0.3540039	28.644306
0.3564453	26.45872
0.35888672	37.27411
0.36132812	51.050167
0.36376953	58.45653
0.36621094	55.84163
0.36865234	43.686874
0.37109375	25.83856
0.37353516	11.912071
0.37597656	20.001339
0.37841797	31.313482
0.38085938	37.313755
0.38330078	37.871727
0.3857422	34.242336
0.3881836	27.736088
0.390625	19.265106
0.3930664	9.9009075
0.3955078	7.8821163
0.39794922	18.836208
0.40039062	31.532001
0.40283203	43.20186
0.40527344	52.122547
0.40771484	57.010414
0.41015625	57.58195
0.41259766	55.12511
0.41503906	52.56621
0.41748047	53.134354
0.41992188	57.641575
0.42236328	63.87127
0.4248047	69.023224
0.4272461	71.630714
0.4296875	72.09808
0.4321289	72.3514
0.4345703	74.369705
0.43701172	78.16277
0.43945312	81.364395
0.44189453	80.844925
0.44433594	74.42187
0.44677734	61.789494
0.44921875	45.09752
0.45166016	30.402153
0.45410156	28.724941
0.45654297	38.298172
0.45898438	46.979736
0.46142578	49.988464
0.4638672	47.029358
0.4663086	39.94261
0.46875	31.58632
0.4711914	24.84632
0.4736328	21.252832
0.47607422	20.012764
0.47851562	19.994228
0.48095703	21.84625
0.48339844	26.187986
0.48583984	31.349363
0.48828125	34.749165
0.49072266	34.813046
0.49316406	31.67187
0.49560547	27.05027
0.49804688	23.461504
0.5004883	22.338114
0.5029297	22.559074
0.5053711	22.118639
0.5078125	20.067902
0.5102539	16.669353
0.5126953	12.861131
0.5151367	9.545323
0.5175781	6.9376593
0.52001953	4.57675
0.52246094	1.8973935
0.52490234	4.7210555
0.52734375	14.479656
0.52978516	29.300385
0.53222656	47.341015
0.53466797	64.69963
0.5371094	76.60367
0.5395508	79.22916
0.5419922	71.2868
0.5444336	54.61027
0.546875	33.39203
0.5493164	12.342109
0.5517578	5.924095
0.5541992	19.735638
0.5566406	29.886292
0.55908203	35.276543
0.56152344	34.14225
0.56396484	26.201094
0.56640625	14.596658
0.56884766	9.501152
0.57128906	15.93479
0.57373047	21.9199
0.5761719	27.028238
0.5786133	31.530422
0.5810547	32.304565
0.5834961	26.3285
0.5859375	13.797338
0.5883789	4.98716
0.5908203	19.223486
0.5932617	30.68888
0.5957031	37.42455
0.59814453	40.653873
0.60058594	41.550957
0.60302734	39.50043
0.60546875	33.227592
0.60791016	24.645758
0.61035156	25.661516
0.61279297	42.24745
0.6152344	62.43007
0.6176758	78.068565
0.6201172	84.480606
0.6225586	79.686325
0.625	64.767044
0.6274414	43.594643
0.6298828	21.528912
0.6323242	5.1907854
0.6347656	13.427214
0.63720703	24.556654
0.63964844	34.64054
0.64208984	41.90678
0.64453125	43.04488
0.64697266	36.16112
0.64941406	22.520498
0.65185547	8.4742365
0.6542969	15.21404
0.6567383	26.2301
0.6591797	32.164665
0.6616211	33.21473
0.6640625	30.102892
0.6665039	22.559933
0.6689453	11.015276
0.6713867	10.885416
0.6738281	26.628628
0.67626953	40.16641
0.67871094	47.700367
0.68115234	49.341408
0.68359375	48.553356
0.68603516	49.491585
0.68847656	52.319042
0.69091797	53.371967
0.6933594	49.87993
0.6958008	42.25932
0.6982422	33.158546
0.7006836	25.191923
0.703125	20.429754
0.7055664	21.335272
0.7080078	25.711704
0.7104492	27.323626
0.7128906	22.471725
0.71533203	13.443579
0.71777344	17.2058
0.72021484	32.328217
0.72265625	44.596264
0.72509766	49.0446
0.72753906	44.10392
0.72998047	31.795483
0.7324219	22.17601
0.7348633	30.721855
0.7373047	44.537724
0.7397461	52.261505
0.7421875	53.744682
0.7446289	54.21949
0.7470703	56.17281
0.7495117	55.186733
0.7519531	46.866848
0.75439453	32.193726
0.75683594	16.64404
0.75927734	10.078495
0.76171875	17.189074
0.76416016	24.990206
0.76660156	27.502789
0.76904297	20.66105
0.7714844	4.2362566
0.7739258	19.029242
0.7763672	40.346107
0.7788086	54.138817
0.78125	58.003155
0.7836914	54.294285
0.7861328	47.881104
0.7885742	42.21803
0.7910156	37.876667
0.79345703	34.993835
0.79589844	33.878643
0.79833984	33.317593
0.80078125	32.31261
0.80322266	32.597813
0.80566406	36.604
0.80810547	44.183678
0.8105469	53.69232
0.8129883	62.534813
0.8154297	66.5601
0.8178711	61.988976
0.8203125	48.606834
0.8227539	31.456173
0.8251953	20.191507
0.8276367	19.895227
0.8300781	22.911995
0.83251953	27.788652
0.83496094	33.81887
0.83740234	37.480064
0.83984375	39.069225
0.84228516	41.808903
0.84472656	44.36244
0.84716797	41.812172
0.8496094	32.961205
0.8520508	23.07373
0.8544922	20.231
0.8569336	21.953897
0.859375	21.705471
0.8618164	20.308445
0.8642578	20.595442
0.8666992	21.990381
0.8691406	23.158754
0.87158203	24.382502
0.87402344	25.100645
0.87646484	23.080221
0.87890625	16.87617
0.88134766	8.613082
0.88378906	11.157597
0.88623047	21.706999
0.8886719	30.976482
0.8911133	37.111305
0.8935547	39.31408
0.8959961	37.26469
0.8984375	31.567783
0.9008789	24.098377
0.9033203	17.738186
0.9057617	15.493865
0.9082031	19.519346
0.91064453	29.305426
0.91308594	40.90013
0.91552734	49.03813
0.91796875	50.31307
0.92041016	46.14469
0.92285156	42.79555
0.92529297	43.85531
0.9277344	44.170662
0.9301758	38.243305
0.9326172	26.509996
0.9350586	15.694347
0.9375	15.102032
0.9399414	17.099077
0.9423828	13.815123
0.9448242	9.508506
0.9472656	15.131273
0.94970703	23.340662
0.95214844	29.203215
0.95458984	35.11041
0.95703125	44.208946
0.95947266	54.741272
0.96191406	62.390316
0.96435547	64.83437
0.9667969	62.914246
0.9692383	58.64225
0.9716797	52.478752
0.9741211	43.773926
0.9765625	33.71027
0.9790039	25.836515
0.9814453	21.567917
0.9838867	17.397982
0.9863281	10.848546
0.98876953	4.6145506
0.99121094	9.64272
0.99365234	19.33201
0.99609375	31.101307
0.99853516	44.026657
1.0009766	55.617302
1.003418	63.232376
1.0058594	65.5917
1.0083008	63.3613
1.0107422	58.602108
1.0131836	53.37352
1.015625	48.502407
1.0180664	43.61227
1.0205078	38.057976
1.0229492	31.59414
1.0253906	24.59763
1.027832	18.16282
1.0302734	13.827677
1.0327148	12.184704
1.0351562	11.825401
1.0375977	11.324075
1.0400391	10.458578
1.0424805	9.62154
1.0449219	9.169773
1.0473633	8.931075
1.0498047	8.00012
1.0522461	5.2089176
1.0546875	0.575239
1.0571289	6.287618
1.0595703	11.114058
1.0620117	11.572641
1.0644531	6.4125934
1.0668945	2.8274002
1.0693359	12.502818
1.0717773	19.13992
1.0742188	21.868456
1.0766602	23.094416
1.0791016	25.828875
1.081543	30.386866
1.0839844	35.772675
1.0864258	41.287556
1.0888672	45.543476
1.0913086	46.002983
1.09375	40.18018
1.0961914	27.411118
1.0986328	11.144797
1.1010742	16.498701
1.1035156	35.15898
1.105957	51.345104
1.1083984	63.66194
1.1108398	72.31243
1.1132812	77.50315
1.1157227	78.93772
1.1181641	76.25135
1.1206055	70.00389
1.1230469	62.522793
1.1254883	57.54117
1.1279297	57.400013
1.1303711	60.303566
1.1328125	62.339336
1.1352539	60.694065
1.1376953	54.49919
1.1401367	44.532043
1.1425781	32.598995
1.1450195	20.785955
1.1474609	10.900907
1.1499023	3.9475048
1.1523438	1.6964426
1.1547852	8.108294
1.1572266	17.054432
1.159668	27.051704
1.1621094	36.364952
1.1645508	44.089436
1.1669922	50.308895
1.1694336	55.64805
1.171875	60.686745
1.1743164	65.40998
1.1767578	68.87777
1.1791992	69.58007
1.1816406	66.43627
1.184082	59.553955
1.1865234	49.999897
1.1889648	38.811367
1.1914062	26.405407
1.1938477	13.480583
1.1962891	7.944614
1.1987305	17.662758
1.2011719	26.263145
1.2036133	29.937933
1.2060547	28.268953
1.2084961	22.479801
1.2109375	16.916737
1.2133789	21.24208
1.2158203	33.65804
1.2182617	45.663654
1.2207031	52.96111
1.2231445	54.290478
1.2255859	50.6932
1.2280273	44.335926
1.2304688	37.353077
1.2329102	31.756382
1.2353516	29.620161
1.237793	31.420023
1.2402344	35.327946
1.2426758	39.73376
1.2451172	44.158356
1.2475586	48.15175
1.25	50.628227
1.2524414	50.30792
1.2548828	46.4543
1.2573242	39.269325
1.2597656	29.902012
1.262207	20.416965
1.2646484	14.120723
1.2670898	13.632557
1.2695312	15.428058
1.2719727	16.14761
1.2744141	16.613468
1.2768555	19.053751
1.2792969	23.273298
1.2817383	27.15941
1.2841797	29.164505
1.2866211	28.949903
1.2890625	27.33701
1.2915039	26.095865
1.2939453	26.882288
1.2963867	29.523428
1.2988281	32.10283
1.3012695	32.397713
1.3037109	28.822128
1.3061523	21.737774
1.3085938	17.691044
1.3110352	26.876305
1.3134766	42.16972
1.315918	56.21573
1.3183594	66.16102
1.3208008	71.24213
1.3232422	71.74858
1.3256836	68.32706
1.328125	61.87453
1.3305664	53.767937
1.3330078	45.588444
1.3354492	38.210403
1.3378906	31.538956
1.340332	25.669716
1.3427734	22.445501
1.3452148	25.164642
1.3476562	33.64514
1.3500977	43.97639
1.3525391	52.67034
1.3549805	57.98505
1.3574219	59.92451
1.3598633	59.49084
1.3623047	57.94165
1.3647461	56.523468
1.3671875	55.875187
1.3696289	55.122887
1.3720703	52.308403
1.3745117	45.91318
1.3769531	35.761715
1.3793945	23.449064
1.3818359	15.54626
1.3842773	22.80661
1.3867188	35.76869
1.3891602	46.693256
1.3916016	53.186565
1.394043	54.47348
1.3964844	50.82353
1.3989258	43.460705
1.4013672	34.178547
1.4038086	24.480518
1.40625	14.966082
1.4086914	5.8611226
1.4111328	4.3454947
1.4135742	12.127196
1.4160156	19.273998
1.418457	25.14979
1.4208984	28.944471
1.4233398	29.691692
1.4257812	26.976423
1.4282227	21.525436
1.4306641	15.817707
1.4331055	14.284627
1.4355469	17.195652
1.4379883	19.201292
1.4404297	17.000483
1.4428711	9.958811
1.4453125	3.4947214
1.4477539	15.479926
1.4501953	28.582253
1.4526367	39.70839
1.4550781	47.73447
1.4575195	52.699837
1.4599609	55.48362
1.4624023	56.897156
1.4648438	56.88072
1.4672852	54.73192
1.4697266	50.14523
1.472168	44.04338
1.4746094	38.484837
1.4770508	35.25938
1.4794922	34.018475
1.4819336	32.723457
1.484375	29.781456
1.4868164	24.843775
1.4892578	18.536886
1.4916992	13.110925
1.4941406	14.141996
1.496582	21.561304
1.4990234	29.818642
1.5014648	36.141777
1.5039062	39.59565
1.5063477	40.43576
1.5087891	39.652084
1.5112305	38.29458
1.5136719	36.793144
1.5161133	34.76616
1.5185547	31.511885
1.5209961	26.749039
1.5234375	21.41586
1.5258789	19.126272
1.5283203	24.505133
1.5307617	35.44428
1.5332031	47.14305
1.5356445	55.879684
1.5380859	59.02561
1.5405273	55.548122
1.5429688	46.52217
1.5454102	35.258755
1.5478516	27.248882
1.550293	27.440416
1.5527344	33.268875
1.5551758	39.502754
1.5576172	43.624447
1.5600586	44.608616
1.5625	41.954903
1.5649414	35.449978
1.5673828	25.332607
1.5698242	13.192281
1.5722656	9.018978
1.574707	19.520273
1.5771484	28.872606
1.5795898	33.439415
1.5820312	32.779896
1.5844727	28.079266
1.5869141	21.748323
1.5893555	16.985523
1.5917969	16.389465
1.5942383	19.696243
1.5966797	25.470287
1.5991211	32.308586
1.6015625	37.9737
1.6040039	40.164227
1.6064453	38.073307
1.6088867	33.304874
1.6113281	29.235836
1.6137695	27.962536
1.6162109	28.037786
1.6186523	27.84964
1.6210938	28.76708
1.6235352	33.227127
1.6259766	40.765244
1.628418	48.756824
1.6308594	54.995804
1.6333008	58.20178
1.6357422	57.64374
1.6381836	52.903233
1.640625	43.990368
1.6430664	31.75926
1.6455078	19.00779
1.6479492	15.120641
1.6503906	24.47808
1.652832	35.027344
1.6552734	42.341225
1.6577148	45.645454
1.6601562	45.54315
1.6625977	43.63664
1.6650391	42.073124
1.6674805	42.12952
1.6699219	42.825455
1.6723633	41.814133
1.6748047	37.337788
1.6772461	29.094093
1.6796875	18.113392
1.6821289	6.390719
1.6845703	4.6158733
1.6870117	11.303785
1.6894531	13.20457
1.6918945	10.004191
1.6943359	3.2796557
1.6967773	7.490574
1.6992188	16.729805
1.7016602	24.385153
1.7041016	29.57058
1.706543	32.250988
1.7089844	32.684605
1.7114258	31.092287
1.7138672	27.89528
1.7163086	24.620777
1.71875	24.563797
1.7211914	29.606066
1.7236328	36.97242
1.7260742	43.000645
1.7285156	45.75714
1.730957	45.147396
1.7333984	42.28433
1.7358398	38.554794
1.7382812	34.889267
1.7407227	31.645697
1.7431641	29.029291
1.7456055	27.560976
1.7480469	28.057814
1.7504883	30.913683
1.7529297	35.49374
1.7553711	40.564342
1.7578125	45.0177
1.7602539	48.07996
1.7626953	49.238255
1.7651367	48.336903
1.7675781	45.781563
1.7700195	42.54205
1.7724609	39.991474
1.7749023	39.752674
1.7773438	43.13485
1.7797852	49.91608
1.7822266	57.99268
1.784668	64.484184
1.7871094	67.166695
1.7895508	65.71992
1.7919922	62.448925
1.7944336	61.376076
1.796875	64.67488
1.7993164	70.13569
1.8017578	73.691246
1.8041992	72.48736
1.8066406	65.66887
1.809082	54.11609
1.8115234	39.959385
1.8139648	26.121101
1.8164062	16.281855
1.8188477	13.845284
1.8212891	15.857221
1.8237305	18.12092
1.8261719	20.373766
1.8286133	22.530893
1.8310547	23.16667
1.8334961	20.837288
1.8359375	15.28423
1.8383789	7.8790135
1.8408203	6.287616
1.8432617	14.042247
1.8457031	21.520836
1.8481445	26.325018
1.8505859	27.147787
1.8530273	23.299389
1.8554688	15.086381
1.8579102	3.9745424
1.8603516	7.8527107
1.862793	18.373112
1.8652344	26.457705
1.8676758	31.94975
1.8701172	35.372795
1.8725586	37.55102
1.875	38.953648
1.8774414	39.13898
1.8798828	37.186005
1.8823242	32.62311
1.8847656	25.787
1.887207	17.606245
1.8896484	9.648247
1.8920898	6.2626915
1.8945312	9.66123
1.8969727	12.375918
1.8994141	12.163666
1.9018555	9.448146
1.9042969	5.6512475
1.9067383	2.1015239
1.9091797	0.98173434
1.9116211	4.051668
1.9140625	6.9732804
1.9165039	8.809227
1.9189453	8.966119
1.9213867	8.611439
1.9238281	11.009946
1.9262695	16.265282
1.9287109	21.46169
1.9311523	24.723059
1.9335938	25.822578
1.9360352	25.737703
1.9384766	25.531479
1.940918	25.356653
1.9433594	24.566278
1.9458008	22.577223
1.9482422	19.66238
1.9506836	17.493504
1.953125	18.300077
1.9555664	21.772833
1.9580078	25.574642
1.9604492	28.240543
1.9628906	29.703144
1.965332	30.72304
1.9677734	31.9116
1.9702148	33.01062
1.9726562	33.437634
1.9750977	33.541462
1.9775391	34.786057
1.9799805	38.104908
1.9824219	42.61105
1.9848633	46.601753
1.9873047	48.744225
1.9897461	48.15844
1.9921875	44.16919
1.9946289	36.39189
1.9970703	25.106554
1.9995117	11.563859
2.0019531	4.3504696
2.0043945	16.58975
2.006836	26.896458
2.0092773	33.89253
2.0117188	37.79369
2.0141602	39.59099
2.0166016	40.424263
2.019043	40.82904
2.0214844	40.473915
2.0239258	38.71426
2.0263672	35.5079
2.0288086	31.993076
2.03125	30.129732
2.0336914	31.046412
2.0361328	33.791492
2.0385742	36.453777
2.0410156	37.565758
2.043457	36.506535
2.0458984	33.457825
2.0483398	29.101437
2.0507812	24.146725
2.0532227	19.060654
2.055664	14.307726
2.0581055	10.917324
2.0605469	10.333481
2.0629883	12.238953
2.0654297	14.798145
2.067871	16.826117
2.0703125	17.824425
2.072754	17.749516
2.0751953	17.008238
2.0776367	16.366673
2.0800781	16.392424
2.0825195	16.7035
2.084961	16.268087
2.0874023	14.683189
2.0898438	13.279162
2.0922852	14.607242
2.0947266	18.765255
2.097168	23.5326
2.0996094	27.281446
2.1020508	29.270838
2.1044922	29.280916
2.1069336	27.377174
2.109375	23.828259
2.1118164	19.130705
2.1142578	14.053728
2.1166992	9.820872
2.1191406	8.361931
2.121582	10.020959
2.1240234	12.273837
2.1264648	13.248614
2.1289062	12.370728
2.1313477	10.855172
2.133789	12.379525
2.1362305	18.122625
2.1386719	25.1671
2.1411133	31.262585
2.1435547	35.363827
2.145996	37.279133
2.1484375	37.41849
2.150879	36.5653
2.1533203	35.533
2.1557617	34.639442
2.1582031	33.405487
2.1606445	30.956015
2.163086	26.795628
2.1655273	21.46928
2.1679688	17.262117
2.1704102	17.426308
2.1728516	21.028902
2.175293	24.261742
2.1777344	25.279337
2.1801758	24.216518
2.1826172	22.088333
2.1850586	19.719969
2.1875	17.180815
2.1899414	14.10094
2.1923828	10.270884
2.1948242	5.7864065
2.1972656	1.9331992
2.199707	6.2644253
2.2021484	12.355911
2.2045898	17.714596
2.2070312	21.06264
2.2094727	21.487114
2.211914	18.639833
2.2143555	12.926311
2.2167969	6.135946
2.2192383	6.791119
2.2216797	14.180836
2.224121	21.37194
2.2265625	27.400057
2.229004	31.668432
2.2314453	33.28205
2.2338867	31.423817
2.2363281	26.086565
2.2387695	18.42516
2.241211	10.33914
2.2436523	3.9572668
2.2460938	3.1718256
2.2485352	4.5551243
2.2509766	4.1173077
2.253418	3.1087415
2.2558594	3.9013317
2.2583008	5.904561
2.2607422	8.118164
2.2631836	10.045806
2.265625	10.840299
2.2680664	9.563615
2.2705078	5.599134
2.2729492	1.3910472
2.2753906	9.230305
2.277832	16.965763
2.2802734	22.44235
2.2827148	24.288939
2.2851562	21.988367
2.2875977	15.943818
2.290039	7.4013577
2.2924805	3.0186179
2.2949219	11.722204
2.2973633	19.145649
2.2998047	24.125198
2.302246	25.91865
2.3046875	23.970201
2.307129	18.410725
2.3095703	10.792144
2.3120117	6.6378603
2.3144531	11.614921
2.3168945	17.457067
2.319336	21.698238
2.3217773	24.504562
2.3242188	26.508762
2.3266602	28.248804
2.3291016	29.568584
2.331543	29.47425
2.3339844	26.866278
2.3364258	21.395794
2.3388672	13.754273
2.3413086	5.4895597
2.34375	3.492351
2.3461914	9.108536
2.3486328	13.026742
2.3510742	15.356323
2.3535156	16.882862
2.355957	17.956457
2.3583984	18.053993
2.3608398	16.407606
2.3632812	12.988022
2.3657227	9.723729
2.368164	11.286496
2.3706055	17.198952
2.3730469	23.470068
2.3754883	28.276997
2.3779297	30.91201
2.380371	31.117191
2.3828125	29.013052
2.385254	25.17819
2.3876953	20.439293
2.3901367	15.437603
2.3925781	10.431748
2.3950195	5.7400737
2.397461	4.3391275
2.3999023	8.64286
2.4023438	14.01053
2.4047852	18.74229
2.4072266	21.73952
2.409668	22.13129
2.4121094	19.6902
2.4145508	15.082375
2.4169922	9.85103
2.4194336	6.340678
2.421875	5.9853487
2.4243164	6.406158
2.4267578	6.3521895
2.4291992	7.026259
2.4316406	9.37328
2.434082	12.562055
2.4365234	15.358942
2.4389648	16.808926
2.4414062	16.434334
2.4438477	14.400179
2.446289	11.390867
2.4487305	8.279046
2.4511719	6.513764
2.4536133	8.480653
2.4560547	13.224713
