
X-Axis: Frequency (hz)
Y-Axis: Fourier Amplitude (cm/s)
Number of Data Sets: 4


DATASET #1

Name: FAS H1 (cm/s)
Num Points: 2044
Info: 

X, Y Data:
0.009765625	0.031536467
0.012207031	0.0496632
0.014648438	0.08543734
0.017089844	0.20149519
0.01953125	0.42881292
0.021972656	0.7923214
0.024414062	1.3047909
0.026855469	1.9678665
0.029296875	2.7562854
0.03173828	3.607621
0.034179688	4.443849
0.036621094	5.1717596
0.0390625	5.6867394
0.041503906	5.8995147
0.043945312	5.728744
0.04638672	5.1773477
0.048828125	4.3394566
0.05126953	3.3777008
0.053710938	2.4744308
0.056152344	1.7410898
0.05859375	1.225393
0.061035156	0.91637456
0.06347656	0.769034
0.06591797	0.64549035
0.068359375	0.7866324
0.07080078	1.6595186
0.07324219	3.0086722
0.075683594	4.507072
0.078125	5.842354
0.080566406	6.7514243
0.08300781	7.137725
0.08544922	7.1858397
0.087890625	7.263327
0.09033203	7.629068
0.09277344	8.124909
0.095214844	8.266819
0.09765625	7.6146455
0.10009766	5.991451
0.10253906	3.7579827
0.10498047	3.1958115
0.10742188	5.974601
0.10986328	9.386564
0.11230469	12.424995
0.11474609	14.985311
0.1171875	17.332628
0.11962891	19.802242
0.12207031	22.517784
0.12451172	25.311724
0.12695312	27.695318
0.12939453	28.836344
0.13183594	27.83168
0.13427734	24.237627
0.13671875	18.72432
0.13916016	14.031946
0.14160156	14.426242
0.14404297	18.469034
0.14648438	21.38891
0.14892578	21.004276
0.15136719	17.258059
0.1538086	11.608575
0.15625	6.3409047
0.1586914	2.8085856
0.16113281	2.6374574
0.16357422	8.818523
0.16601562	16.79299
0.16845703	23.823742
0.17089844	27.60267
0.17333984	27.10779
0.17578125	22.903597
0.17822266	16.867458
0.18066406	11.948014
0.18310547	10.809675
0.18554688	11.710651
0.18798828	11.495274
0.19042969	10.129419
0.1928711	11.202469
0.1953125	16.786694
0.1977539	23.75241
0.20019531	29.363972
0.20263672	32.30106
0.20507812	32.2746
0.20751953	29.790289
0.20996094	25.864134
0.21240234	21.745722
0.21484375	18.184818
0.21728516	14.345208
0.21972656	9.382044
0.22216797	10.967762
0.22460938	22.824276
0.22705078	35.719116
0.22949219	44.56634
0.2319336	46.763943
0.234375	42.3867
0.2368164	33.742565
0.23925781	24.046432
0.24169922	15.902211
0.24414062	10.754126
0.24658203	9.150133
0.24902344	10.040122
0.25146484	11.59716
0.25390625	13.663564
0.25634766	18.293768
0.25878906	26.643309
0.26123047	36.73697
0.26367188	45.30673
0.26611328	49.35006
0.2685547	46.72724
0.2709961	36.674805
0.2734375	20.633495
0.2758789	7.045724
0.2783203	18.0703
0.28076172	25.40088
0.28320312	21.013767
0.28564453	8.397337
0.28808594	19.568323
0.29052734	37.336426
0.29296875	45.271854
0.29541016	39.814053
0.29785156	23.363087
0.30029297	8.112567
0.30273438	22.09207
0.30517578	32.731213
0.3076172	31.351685
0.3100586	18.92049
0.3125	12.973212
0.3149414	30.841797
0.3173828	44.5898
0.31982422	46.521145
0.32226562	36.90812
0.32470703	20.91907
0.32714844	5.6842685
0.32958984	6.433921
0.33203125	10.750124
0.33447266	10.513178
0.33691406	7.383072
0.33935547	4.078847
0.34179688	7.925326
0.34423828	16.373945
0.3466797	26.92697
0.3491211	36.950367
0.3515625	41.796795
0.3540039	37.151196
0.3564453	21.939743
0.35888672	4.439631
0.36132812	24.721554
0.36376953	40.451313
0.36621094	44.033333
0.36865234	35.465767
0.37109375	20.508783
0.37353516	13.040834
0.37597656	20.694122
0.37841797	27.979256
0.38085938	32.47223
0.38330078	33.910496
0.3857422	29.999838
0.3881836	20.108099
0.390625	14.783854
0.3930664	28.318853
0.3955078	42.58935
0.39794922	47.896976
0.40039062	41.25571
0.40283203	24.494015
0.40527344	10.213545
0.40771484	25.35305
0.41015625	38.013855
0.41259766	38.43288
0.41503906	27.124088
0.41748047	10.880684
0.41992188	9.964731
0.42236328	16.731684
0.4248047	15.904968
0.4272461	11.904788
0.4296875	12.276653
0.4321289	13.496756
0.4345703	11.563549
0.43701172	14.915298
0.43945312	26.171478
0.44189453	35.798042
0.44433594	38.555283
0.44677734	34.390026
0.44921875	27.612188
0.45166016	23.115456
0.45410156	20.9259
0.45654297	18.337849
0.45898438	15.969462
0.46142578	17.96432
0.4638672	24.702433
0.4663086	32.447773
0.46875	40.130043
0.4711914	48.175377
0.4736328	54.19354
0.47607422	54.053753
0.47851562	46.55232
0.48095703	34.9057
0.48339844	23.345362
0.48583984	13.118874
0.48828125	5.678334
0.49072266	10.887341
0.49316406	18.513338
0.49560547	23.054966
0.49804688	23.633152
0.5004883	22.961956
0.5029297	26.917164
0.5053711	35.211563
0.5078125	42.12877
0.5102539	42.763973
0.5126953	34.026436
0.5151367	19.823494
0.5175781	26.053509
0.52001953	45.254807
0.52246094	55.070915
0.52490234	50.683758
0.52734375	35.56621
0.52978516	17.155678
0.53222656	4.730325
0.53466797	8.604085
0.5371094	9.845241
0.5395508	11.542948
0.5419922	20.314722
0.5444336	30.068752
0.546875	35.13277
0.5493164	34.2114
0.5517578	30.09531
0.5541992	26.915045
0.5566406	26.09049
0.55908203	25.915058
0.56152344	24.106224
0.56396484	19.340775
0.56640625	11.711016
0.56884766	2.840527
0.57128906	9.225109
0.57373047	19.280092
0.5761719	26.351128
0.5786133	27.105585
0.5810547	20.603613
0.5834961	15.039351
0.5859375	23.032999
0.5883789	31.467642
0.5908203	32.972694
0.5932617	30.012234
0.5957031	26.826447
0.59814453	23.648993
0.60058594	20.62238
0.60302734	20.641783
0.60546875	22.76691
0.60791016	23.861439
0.61035156	24.232216
0.61279297	25.426256
0.6152344	26.35402
0.6176758	24.634624
0.6201172	19.643839
0.6225586	14.500164
0.625	16.303005
0.6274414	22.754564
0.6298828	26.872896
0.6323242	26.901894
0.6347656	24.715355
0.63720703	22.793207
0.63964844	22.025446
0.64208984	21.878687
0.64453125	20.166018
0.64697266	15.040851
0.64941406	11.814253
0.65185547	17.591143
0.6542969	22.429394
0.6567383	23.033775
0.6591797	24.40149
0.6616211	26.891932
0.6640625	23.97152
0.6665039	13.121756
0.6689453	2.5434787
0.6713867	16.283594
0.6738281	25.551418
0.67626953	29.792837
0.67871094	29.325453
0.68115234	23.57253
0.68359375	13.062812
0.68603516	5.460887
0.68847656	14.702697
0.69091797	22.214178
0.6933594	24.994495
0.6958008	23.51574
0.6982422	18.470003
0.7006836	10.859103
0.703125	3.906495
0.7055664	8.674675
0.7080078	15.780198
0.7104492	20.851028
0.7128906	21.672754
0.71533203	16.303995
0.71777344	5.589683
0.72021484	7.437212
0.72265625	15.86875
0.72509766	17.98252
0.72753906	15.853576
0.72998047	13.617207
0.7324219	11.803768
0.7348633	10.504578
0.7373047	13.594828
0.7397461	20.019852
0.7421875	25.956589
0.7446289	29.116959
0.7470703	28.466413
0.7495117	24.21307
0.7519531	17.979061
0.75439453	14.463649
0.75683594	16.953388
0.75927734	18.679766
0.76171875	15.392775
0.76416016	9.116825
0.76660156	5.4266486
0.76904297	7.0270114
0.7714844	10.687137
0.7739258	14.296239
0.7763672	14.753091
0.7788086	10.842204
0.78125	5.163355
0.7836914	5.2762184
0.7861328	9.230513
0.7885742	12.627565
0.7910156	13.966041
0.79345703	12.136084
0.79589844	10.27936
0.79833984	13.25461
0.80078125	17.796202
0.80322266	21.989899
0.80566406	26.480185
0.80810547	29.191616
0.8105469	27.283121
0.8129883	22.101332
0.8154297	20.033112
0.8178711	22.787167
0.8203125	24.588385
0.8227539	23.270641
0.8251953	20.477966
0.8276367	19.08758
0.8300781	19.966639
0.83251953	20.905014
0.83496094	22.516525
0.83740234	27.946587
0.83984375	35.147114
0.84228516	40.20844
0.84472656	42.558605
0.84716797	43.218815
0.8496094	41.76171
0.8520508	37.200512
0.8544922	30.484655
0.8569336	24.381416
0.859375	20.746323
0.8618164	18.629175
0.8642578	16.621132
0.8666992	14.785524
0.8691406	13.519408
0.87158203	12.440524
0.87402344	10.941064
0.87646484	9.316952
0.87890625	8.026893
0.88134766	6.419839
0.88378906	6.469422
0.88623047	11.603545
0.8886719	18.793224
0.8911133	25.576084
0.8935547	30.57694
0.8959961	33.08732
0.8984375	33.55505
0.9008789	33.548122
0.9033203	34.548084
0.9057617	37.06358
0.9082031	41.377003
0.91064453	47.40119
0.91308594	53.35846
0.91552734	56.527122
0.91796875	55.367382
0.92041016	50.427204
0.92285156	43.74792
0.92529297	37.572468
0.9277344	33.111973
0.9301758	30.310358
0.9326172	28.47605
0.9350586	26.73701
0.9375	23.864527
0.9399414	18.486977
0.9423828	10.318344
0.9448242	1.5876371
0.9472656	7.236196
0.94970703	11.744477
0.95214844	12.990685
0.95458984	12.047038
0.95703125	10.381429
0.95947266	9.976964
0.96191406	11.174037
0.96435547	12.584911
0.9667969	14.462504
0.9692383	18.122528
0.9716797	23.613184
0.9741211	29.503366
0.9765625	33.951694
0.9790039	35.232002
0.9814453	32.102676
0.9838867	24.682783
0.9863281	15.057835
0.98876953	8.7058735
0.99121094	12.195755
0.99365234	17.459805
0.99609375	20.372072
0.99853516	21.717962
1.0009766	24.250458
1.003418	29.579086
1.0058594	35.96806
1.0083008	40.49682
1.0107422	40.864403
1.0131836	35.799225
1.015625	25.645582
1.0180664	12.935116
1.0205078	5.321717
1.0229492	10.30462
1.0253906	11.444613
1.027832	6.2445235
1.0302734	4.715702
1.0327148	17.234049
1.0351562	29.770124
1.0375977	39.619156
1.0400391	44.927643
1.0424805	45.03722
1.0449219	40.490055
1.0473633	32.6266
1.0498047	23.20152
1.0522461	14.052783
1.0546875	6.78555
1.0571289	2.3347719
1.0595703	1.7147144
1.0620117	4.0662866
1.0644531	7.1399007
1.0668945	10.44822
1.0693359	14.013574
1.0717773	18.03584
1.0742188	22.333157
1.0766602	26.188765
1.0791016	28.549938
1.081543	28.476887
1.0839844	25.946232
1.0864258	22.047901
1.0888672	17.770102
1.0913086	13.313033
1.09375	9.270664
1.0961914	7.256509
1.0986328	8.823027
1.1010742	12.531725
1.1035156	15.45257
1.105957	15.77779
1.1083984	13.048502
1.1108398	8.063991
1.1132812	5.849983
1.1157227	10.179813
1.1181641	13.111975
1.1206055	11.995187
1.1230469	7.412379
1.1254883	5.8395987
1.1279297	13.832724
1.1303711	23.006449
1.1328125	30.838707
1.1352539	36.568714
1.1376953	39.67443
1.1401367	39.46858
1.1425781	35.659805
1.1450195	29.38496
1.1474609	23.662323
1.1499023	21.271294
1.1523438	21.014755
1.1547852	20.21436
1.1572266	19.501804
1.159668	21.79394
1.1621094	26.49507
1.1645508	30.100595
1.1669922	30.585741
1.1694336	28.015678
1.171875	23.556242
1.1743164	18.666948
1.1767578	14.810815
1.1791992	12.751043
1.1816406	11.593725
1.184082	10.020113
1.1865234	8.522167
1.1889648	9.634095
1.1914062	13.236424
1.1938477	16.709454
1.1962891	18.586098
1.1987305	18.518171
1.2011719	17.039259
1.2036133	16.14328
1.2060547	18.670866
1.2084961	24.362251
1.2109375	30.288904
1.2133789	34.05833
1.2158203	34.296604
1.2182617	30.649519
1.2207031	23.849253
1.2231445	15.623266
1.2255859	8.908875
1.2280273	8.120096
1.2304688	10.917801
1.2329102	12.661202
1.2353516	13.052844
1.237793	13.83983
1.2402344	16.24145
1.2426758	18.744041
1.2451172	18.971987
1.2475586	15.644403
1.25	8.977978
1.2524414	1.2559223
1.2548828	7.460029
1.2573242	12.06744
1.2597656	12.137166
1.262207	7.7287383
1.2646484	2.4488218
1.2670898	10.226706
1.2695312	18.249636
1.2719727	22.913124
1.2744141	23.082195
1.2768555	19.266272
1.2792969	13.326471
1.2817383	8.136398
1.2841797	6.3096776
1.2866211	5.677684
1.2890625	3.2078416
1.2915039	2.1592581
1.2939453	7.1602583
1.2963867	11.754051
1.2988281	14.676115
1.3012695	15.374588
1.3037109	13.785802
1.3061523	10.558666
1.3085938	7.731804
1.3110352	7.9161663
1.3134766	9.005788
1.315918	7.955147
1.3183594	5.216347
1.3208008	5.9116807
1.3232422	9.1250515
1.3256836	10.053746
1.328125	9.580914
1.3305664	13.87641
1.3330078	22.453081
1.3354492	29.940487
1.3378906	33.03056
1.340332	30.78189
1.3427734	24.531948
1.3452148	17.90347
1.3476562	16.194294
1.3500977	19.280008
1.3525391	21.828562
1.3549805	21.644815
1.3574219	19.446472
1.3598633	17.168463
1.3623047	16.299288
1.3647461	16.948673
1.3671875	18.431494
1.3696289	20.0545
1.3720703	21.200026
1.3745117	21.280415
1.3769531	20.011528
1.3793945	17.601942
1.3818359	14.459591
1.3842773	10.80046
1.3867188	7.1215553
1.3891602	6.563988
1.3916016	10.612797
1.394043	14.852091
1.3964844	16.876734
1.3989258	16.534016
1.4013672	16.331484
1.4038086	19.34851
1.40625	24.143526
1.4086914	27.075254
1.4111328	25.848701
1.4135742	19.959192
1.4160156	10.515656
1.418457	1.2188022
1.4208984	10.353304
1.4233398	17.059702
1.4257812	19.784595
1.4282227	19.07833
1.4306641	16.596544
1.4331055	13.88008
1.4355469	11.467683
1.4379883	9.377806
1.4404297	7.881219
1.4428711	7.381216
1.4453125	8.236465
1.4477539	10.648134
1.4501953	13.920379
1.4526367	16.68789
1.4550781	17.755875
1.4575195	16.528797
1.4599609	12.94746
1.4624023	7.357829
1.4648438	0.7323189
1.4672852	6.804517
1.4697266	13.002441
1.472168	17.312595
1.4746094	19.337538
1.4770508	19.394638
1.4794922	18.73034
1.4819336	19.45532
1.484375	22.513702
1.4868164	26.281374
1.4892578	28.644976
1.4916992	28.671968
1.4941406	26.968235
1.496582	25.04489
1.4990234	24.093292
1.5014648	23.951044
1.5039062	23.508114
1.5063477	21.858929
1.5087891	18.86071
1.5112305	15.441747
1.5136719	13.838671
1.5161133	15.535724
1.5185547	18.377995
1.5209961	19.45287
1.5234375	17.333157
1.5258789	12.174198
1.5283203	5.6240435
1.5307617	2.3232973
1.5332031	5.0983925
1.5356445	5.8489695
1.5380859	5.47048
1.5405273	6.729034
1.5429688	9.605261
1.5454102	12.447318
1.5478516	14.319371
1.550293	14.758472
1.5527344	13.839073
1.5551758	12.170691
1.5576172	10.502461
1.5600586	9.043075
1.5625	7.3882165
1.5649414	5.3011627
1.5673828	3.7195802
1.5698242	4.54779
1.5722656	6.4218717
1.574707	7.606553
1.5771484	7.8256645
1.5795898	7.4221973
1.5820312	6.751599
1.5844727	5.863566
1.5869141	4.724437
1.5893555	4.388587
1.5917969	6.92337
1.5942383	11.708755
1.5966797	17.447657
1.5991211	22.881405
1.6015625	26.583082
1.6040039	27.174847
1.6064453	23.878283
1.6088867	17.039686
1.6113281	9.412655
1.6137695	10.358514
1.6162109	17.816511
1.6186523	23.666538
1.6210938	26.58081
1.6235352	27.221771
1.6259766	26.848524
1.628418	26.461914
1.6308594	26.226625
1.6333008	25.66426
1.6357422	24.457716
1.6381836	23.1684
1.640625	23.217113
1.6430664	25.744932
1.6455078	29.911781
1.6479492	33.392635
1.6503906	34.25761
1.652832	32.036453
1.6552734	27.775219
1.6577148	23.09801
1.6601562	18.952112
1.6625977	15.072661
1.6650391	10.922317
1.6674805	6.648613
1.6699219	3.798858
1.6723633	4.676753
1.6748047	6.4479156
1.6772461	7.6593804
1.6796875	9.416082
1.6821289	13.093575
1.6845703	18.411879
1.6870117	23.801771
1.6894531	27.335835
1.6918945	27.46495
1.6943359	23.928677
1.6967773	18.057808
1.6992188	12.484797
1.7016602	9.986132
1.7041016	9.965717
1.706543	9.457063
1.7089844	7.3068075
1.7114258	4.028598
1.7138672	3.6359293
1.7163086	7.9024925
1.71875	12.046257
1.7211914	14.378079
1.7236328	13.977368
1.7260742	10.751274
1.7285156	6.0256414
1.730957	6.13615
1.7333984	12.10529
1.7358398	17.829037
1.7382812	21.82832
1.7407227	24.14603
1.7431641	25.620745
1.7456055	27.23015
1.7480469	29.49847
1.7504883	32.159496
1.7529297	34.29668
1.7553711	34.75572
1.7578125	32.79287
1.7602539	28.615522
1.7626953	23.296751
1.7651367	17.950285
1.7675781	13.064182
1.7700195	9.713302
1.7724609	11.703733
1.7749023	18.470076
1.7773438	26.06844
1.7797852	32.224766
1.7822266	35.741596
1.784668	36.386047
1.7871094	34.854595
1.7895508	32.226833
1.7919922	29.105192
1.7944336	25.233904
1.796875	20.173744
1.7993164	14.089059
1.8017578	7.8962774
1.8041992	4.2852
1.8066406	6.8695045
1.809082	10.543718
1.8115234	13.045404
1.8139648	14.094358
1.8164062	14.0339
1.8188477	13.194936
1.8212891	11.577213
1.8237305	9.402734
1.8261719	7.78449
1.8286133	8.158388
1.8310547	9.672424
1.8334961	10.647513
1.8359375	10.348401
1.8383789	8.814194
1.8408203	6.542145
1.8432617	4.4339867
1.8457031	3.6518095
1.8481445	3.9034333
1.8505859	3.7692907
1.8530273	2.8468947
1.8554688	1.4497776
1.8579102	0.14818698
1.8603516	1.9892601
1.862793	3.9568682
1.8652344	5.4686522
1.8676758	5.841367
1.8701172	4.95287
1.8725586	3.8169637
1.875	4.173738
1.8774414	5.4260798
1.8798828	6.4419713
1.8823242	7.681886
1.8847656	10.014542
1.887207	13.463124
1.8896484	17.369545
1.8920898	20.88526
1.8945312	23.24154
1.8969727	23.901335
1.8994141	22.71118
1.9018555	20.01215
1.9042969	16.615572
1.9067383	13.521182
1.9091797	11.436506
1.9116211	10.529134
1.9140625	10.919328
1.9165039	12.616752
1.9189453	15.166528
1.9213867	17.991837
1.9238281	20.65742
1.9262695	22.816103
1.9287109	24.160486
1.9311523	24.534771
1.9335938	23.967056
1.9360352	22.686275
1.9384766	20.997835
1.940918	19.12866
1.9433594	17.104498
1.9458008	14.92382
1.9482422	12.952028
1.9506836	11.918292
1.953125	12.273333
1.9555664	13.574555
1.9580078	15.168571
1.9604492	16.953903
1.9628906	19.098166
1.965332	21.580658
1.9677734	23.986216
1.9702148	25.708412
1.9726562	26.263391
1.9750977	25.439648
1.9775391	23.361181
1.9799805	20.387503
1.9824219	17.02751
1.9848633	13.790635
1.9873047	11.289903
1.9897461	10.195829
1.9921875	10.658581
1.9946289	12.061049
1.9970703	13.706384
1.9995117	15.118402
2.0019531	15.960748
2.0043945	16.029154
2.006836	15.370319
2.0092773	14.205389
2.0117188	12.919858
2.0141602	11.999131
2.0166016	11.549749
2.019043	11.248184
2.0214844	10.704053
2.0239258	10.11955
2.0263672	9.977018
2.0288086	10.249553
2.03125	10.485299
2.0336914	10.619084
2.0361328	11.046872
2.0385742	11.815147
2.0410156	12.333967
2.043457	11.998007
2.0458984	10.755387
2.0483398	9.144675
2.0507812	7.892734
2.0532227	7.3171062
2.055664	7.172624
2.0581055	7.161219
2.0605469	7.407652
2.0629883	8.374759
2.0654297	10.167262
2.067871	12.225857
2.0703125	13.724096
2.072754	13.94307
2.0751953	12.599863
2.0776367	10.016465
2.0800781	7.3236313
2.0825195	6.540794
2.084961	8.317319
2.0874023	10.856497
2.0898438	13.130312
2.0922852	14.934421
2.0947266	16.419926
2.097168	17.736113
2.0996094	18.78539
2.1020508	19.178648
2.1044922	18.440668
2.1069336	16.3386
2.109375	13.039134
2.1118164	9.0789795
2.1142578	5.123521
2.1166992	1.8810717
2.1191406	2.6881826
2.121582	5.792792
2.1240234	8.975348
2.1264648	11.831987
2.1289062	13.973546
2.1313477	15.090197
2.133789	15.199044
2.1362305	14.843854
2.1386719	14.756289
2.1411133	15.020966
2.1435547	15.110214
2.145996	14.557087
2.1484375	13.356129
2.150879	12.003155
2.1533203	11.464825
2.1557617	12.548812
2.1582031	14.991257
2.1606445	17.891151
2.163086	20.475204
2.1655273	22.435474
2.1679688	23.89407
2.1704102	24.921227
2.1728516	25.148745
2.175293	24.020643
2.1777344	21.336472
2.1801758	17.474133
2.1826172	13.193412
2.1850586	9.239487
2.1875	5.888201
2.1899414	2.896227
2.1923828	1.3060689
2.1948242	3.7568824
2.1972656	6.6440144
2.199707	9.897668
2.2021484	13.91727
2.2045898	18.432665
2.2070312	22.64029
2.2094727	25.696339
2.211914	27.082489
2.2143555	26.756905
2.2167969	25.057777
2.2192383	22.522211
2.2216797	19.679436
2.224121	17.00637
2.2265625	14.85983
2.229004	13.338779
2.2314453	12.084932
2.2338867	10.54843
2.2363281	8.4177885
2.2387695	6.0310397
2.241211	5.0564933
2.2436523	6.7808595
2.2460938	9.120539
2.2485352	10.28088
2.2509766	9.5438595
2.253418	7.257067
2.2558594	6.0839524
2.2583008	8.953954
2.2607422	13.148827
2.2631836	16.379488
2.265625	17.914257
2.2680664	17.915226
2.2705078	16.97972
2.2729492	15.731823
2.2753906	14.252142
2.277832	12.31403
2.2802734	10.069314
2.2827148	8.22681
2.2851562	7.7197237
2.2875977	8.357161
2.290039	9.071679
2.2924805	9.228733
2.2949219	9.0119
2.2973633	9.151162
2.2998047	10.124592
2.302246	11.539017
2.3046875	12.769907
2.307129	13.535378
2.3095703	13.867297
2.3120117	13.930676
2.3144531	13.796779
2.3168945	13.430597
2.319336	12.720663
2.3217773	11.537673
2.3242188	9.769053
2.3266602	7.403364
2.3291016	4.6223526
2.331543	1.9458162
2.3339844	1.9830681
2.3364258	3.8883026
2.3388672	5.2070584
2.3413086	5.665484
2.34375	5.235599
2.3461914	4.056386
2.3486328	2.9240944
2.3510742	3.5000556
2.3535156	5.1827874
2.355957	6.4181595
2.3583984	6.599338
2.3608398	5.753219
2.3632812	4.911902
2.3657227	6.1276174
2.368164	9.150859
2.3706055	12.323803
2.3730469	14.604774
2.3754883	15.571278
2.3779297	15.315948
2.380371	14.265782
2.3828125	12.961947
2.385254	11.882933
2.3876953	11.249233
2.3901367	11.015248
2.3925781	10.968412
2.3950195	10.965322
2.397461	11.091759
2.3999023	11.379671
2.4023438	11.600792
2.4047852	11.481252
2.4072266	11.18595
2.409668	11.423143
2.4121094	12.726949
2.4145508	14.673475
2.4169922	16.44998
2.4194336	17.636644
2.421875	18.328703
2.4243164	18.73368
2.4267578	18.758759
2.4291992	18.093813
2.4316406	16.451653
2.434082	14.057395
2.4365234	11.847008
2.4389648	11.221769
2.4414062	12.525693
2.4438477	14.556878
2.446289	16.253122
