
X-Axis: Frequency (hz)
Y-Axis: Fourier Amplitude (cm/s)
Number of Data Sets: 4


DATASET #1

Name: FAS H1 (cm/s)
Num Points: 2044
Info: 

X, Y Data:
0.009765625	0.079724595
0.012207031	0.11268336
0.014648438	0.15461884
0.017089844	0.20783149
0.01953125	0.27585912
0.021972656	0.3625912
0.024414062	0.4707306
0.026855469	0.6016819
0.029296875	0.75612205
0.03173828	0.9334049
0.034179688	1.1302242
0.036621094	1.3405309
0.0390625	1.557022
0.041503906	1.7723123
0.043945312	1.9788395
0.04638672	2.1684563
0.048828125	2.3332105
0.05126953	2.466813
0.053710938	2.5652325
0.056152344	2.6259265
0.05859375	2.647099
0.061035156	2.628063
0.06347656	2.5703154
0.06591797	2.4778805
0.068359375	2.3569336
0.07080078	2.2156274
0.07324219	2.064774
0.075683594	1.9185224
0.078125	1.7939856
0.080566406	1.7088854
0.08300781	1.6769478
0.08544922	1.7026722
0.087890625	1.7790487
0.09033203	1.8903791
0.09277344	2.0175464
0.095214844	2.1423001
0.09765625	2.2496595
0.10009766	2.328517
0.10253906	2.3708115
0.10498047	2.3706338
0.10742188	2.3251154
0.10986328	2.2370284
0.11230469	2.1166973
0.11474609	1.9816066
0.1171875	1.8557483
0.11962891	1.7705462
0.12207031	1.7615949
0.12451172	1.8520116
0.12695312	2.0344715
0.12939453	2.2769911
0.13183594	2.5443633
0.13427734	2.810448
0.13671875	3.0581622
0.13916016	3.2773192
0.14160156	3.4669657
0.14404297	3.6402214
0.14648438	3.8261678
0.14892578	4.0648303
0.15136719	4.39573
0.1538086	4.8446126
0.15625	5.415164
0.1586914	6.089778
0.16113281	6.8367205
0.16357422	7.617236
0.16601562	8.388738
0.16845703	9.10545
0.17089844	9.720458
0.17333984	10.190977
0.17578125	10.484522
0.17822266	10.582176
0.18066406	10.477743
0.18310547	10.175421
0.18554688	9.689507
0.18798828	9.046206
0.19042969	8.284388
0.1928711	7.4520555
0.1953125	6.599244
0.1977539	5.7716804
0.20019531	5.0104885
0.20263672	4.361047
0.20507812	3.8882303
0.20751953	3.6805835
0.20996094	3.8110497
0.21240234	4.2713847
0.21484375	4.9702835
0.21728516	5.788348
0.21972656	6.612688
0.22216797	7.344949
0.22460938	7.904352
0.22705078	8.232022
0.22949219	8.294352
0.2319336	8.084409
0.234375	7.6232877
0.2368164	6.963985
0.23925781	6.1978545
0.24169922	5.4597497
0.24414062	4.918293
0.24658203	4.7204075
0.24902344	4.893444
0.25146484	5.322125
0.25390625	5.8440905
0.25634766	6.332399
0.25878906	6.7124934
0.26123047	6.9502845
0.26367188	7.0356603
0.26611328	6.968042
0.2685547	6.746913
0.2709961	6.3699737
0.2734375	5.840486
0.2758789	5.183927
0.2783203	4.475513
0.28076172	3.8777034
0.28320312	3.6436503
0.28564453	3.9450607
0.28808594	4.6552134
0.29052734	5.4863353
0.29296875	6.18812
0.29541016	6.5852976
0.29785156	6.5728283
0.30029297	6.122341
0.30273438	5.306175
0.30517578	4.3575974
0.3076172	3.778201
0.3100586	4.1383815
0.3125	5.298013
0.3149414	6.678115
0.3173828	7.8729167
0.31982422	8.662309
0.32226562	8.944398
0.32470703	8.702617
0.32714844	7.981847
0.32958984	6.864053
0.33203125	5.445537
0.33447266	3.8244293
0.33691406	2.1237547
0.33935547	0.9293033
0.34179688	2.0591135
0.34423828	3.7407978
0.3466797	5.3046036
0.3491211	6.60174
0.3515625	7.544136
0.3540039	8.098684
0.3564453	8.307978
0.35888672	8.302871
0.36132812	8.280353
0.36376953	8.419611
0.36621094	8.763962
0.36865234	9.177939
0.37109375	9.426098
0.37353516	9.285463
0.37597656	8.617986
0.37841797	7.403665
0.38085938	5.7615137
0.38330078	4.023085
0.3857422	3.0613866
0.3881836	3.9416819
0.390625	5.886179
0.3930664	8.04053
0.3955078	10.082531
0.39794922	11.794738
0.40039062	12.936522
0.40283203	13.251534
0.40527344	12.530907
0.40771484	10.689013
0.41015625	7.8197412
0.41259766	4.218455
0.41503906	0.6907186
0.41748047	3.5379014
0.41992188	6.511999
0.42236328	8.420967
0.4248047	9.080707
0.4272461	8.548652
0.4296875	7.0855494
0.4321289	5.079504
0.4345703	2.946336
0.43701172	1.0331569
0.43945312	0.4499592
0.44189453	1.4382772
0.44433594	1.9775969
0.44677734	2.1332226
0.44921875	1.9420725
0.45166016	1.496561
0.45410156	1.3669788
0.45654297	2.3252525
0.45898438	3.839908
0.46142578	5.3988285
0.4638672	6.717287
0.4663086	7.6301637
0.46875	8.081849
0.4711914	8.108988
0.4736328	7.8099775
0.47607422	7.3130236
0.47851562	6.7447834
0.48095703	6.197099
0.48339844	5.709362
0.48583984	5.2937336
0.48828125	4.979468
0.49072266	4.804185
0.49316406	4.755084
0.49560547	4.794639
0.49804688	5.019503
0.5004883	5.71333
0.5029297	7.025349
0.5053711	8.677758
0.5078125	10.132043
0.5102539	10.856058
0.5126953	10.49512
0.5151367	8.986603
0.5175781	6.635544
0.52001953	4.209988
0.52246094	3.1157563
0.52490234	3.6070418
0.52734375	3.7951944
0.52978516	2.9751585
0.53222656	2.4730456
0.53466797	4.793278
0.5371094	8.244948
0.5395508	11.501087
0.5419922	13.941177
0.5444336	15.32319
0.546875	15.799129
0.5493164	15.893715
0.5517578	16.296501
0.5541992	17.418623
0.5566406	19.092585
0.55908203	20.795753
0.56152344	22.051418
0.56396484	22.618664
0.56640625	22.49093
0.56884766	21.826115
0.57128906	20.883053
0.57373047	19.980036
0.5761719	19.437422
0.5786133	19.461493
0.5810547	20.025814
0.5834961	20.876669
0.5859375	21.669075
0.5883789	22.113207
0.5908203	22.063112
0.5932617	21.548811
0.5957031	20.741898
0.59814453	19.829237
0.60058594	18.837603
0.60302734	17.565245
0.60546875	15.726716
0.60791016	13.197092
0.61035156	10.158957
0.61279297	7.069698
0.6152344	4.5153637
0.6176758	3.2358885
0.6201172	4.0243526
0.6225586	6.345539
0.625	9.317432
0.6274414	12.267414
0.6298828	14.639224
0.6323242	16.139416
0.6347656	16.818167
0.63720703	16.961811
0.63964844	16.835287
0.64208984	16.476702
0.64453125	15.748878
0.64697266	14.584381
0.64941406	13.188371
0.65185547	12.051791
0.6542969	11.699024
0.6567383	12.260377
0.6591797	13.398533
0.6616211	14.689018
0.6640625	15.867871
0.6665039	16.813509
0.6689453	17.46522
0.6713867	17.795496
0.6738281	17.848608
0.67626953	17.789652
0.67871094	17.87283
0.68115234	18.274834
0.68359375	18.902822
0.68603516	19.396019
0.68847656	19.33843
0.69091797	18.48336
0.6933594	16.850819
0.6958008	14.684977
0.6982422	12.327614
0.7006836	10.105262
0.703125	8.329561
0.7055664	7.3565836
0.7080078	7.379164
0.7104492	8.058856
0.7128906	8.789334
0.71533203	9.16349
0.71777344	9.068945
0.72021484	8.587993
0.72265625	7.8650684
0.72509766	7.0213275
0.72753906	6.1497765
0.72998047	5.349984
0.7324219	4.7393565
0.7348633	4.426077
0.7373047	4.4625945
0.7397461	4.790722
0.7421875	5.227767
0.7446289	5.5308323
0.7470703	5.486821
0.7495117	4.9737325
0.7519531	3.9841974
0.75439453	2.6181567
0.75683594	1.0810211
0.75927734	0.7627471
0.76171875	2.083634
0.76416016	3.1545486
0.76660156	3.9187138
0.76904297	4.6492324
0.7714844	5.8451915
0.7739258	7.7821965
0.7763672	10.229125
0.7788086	12.6878
0.78125	14.680923
0.7836914	15.937614
0.7861328	16.513752
0.7885742	16.812002
0.7910156	17.416594
0.79345703	18.735004
0.79589844	20.73326
0.79833984	23.051651
0.80078125	25.28713
0.80322266	27.148941
0.80566406	28.480263
0.80810547	29.234596
0.8105469	29.453768
0.8129883	29.248018
0.8154297	28.755148
0.8178711	28.074228
0.8203125	27.209476
0.8227539	26.092012
0.8251953	24.700478
0.8276367	23.230434
0.8300781	22.217312
0.83251953	22.455425
0.83496094	24.550505
0.83740234	28.439844
0.83984375	33.492157
0.84228516	38.92029
0.84472656	44.029766
0.84716797	48.313965
0.8496094	51.49469
0.8520508	53.519016
0.8544922	54.50532
0.8569336	54.649906
0.859375	54.130177
0.8618164	53.040874
0.8642578	51.383575
0.8666992	49.10714
0.8691406	46.184116
0.87158203	42.70071
0.87402344	38.92423
0.87646484	35.291687
0.87890625	32.261173
0.88134766	30.052395
0.88378906	28.484343
0.88623047	27.128016
0.8886719	25.659428
0.8911133	24.105757
0.8935547	22.853775
0.8959961	22.45009
0.8984375	23.289955
0.9008789	25.411911
0.9033203	28.55421
0.9057617	32.313374
0.9082031	36.236877
0.91064453	39.884945
0.91308594	42.920036
0.91552734	45.200706
0.91796875	46.82091
0.92041016	48.04965
0.92285156	49.178413
0.92529297	50.357033
0.9277344	51.52618
0.9301758	52.489338
0.9326172	53.051544
0.9350586	53.119896
0.9375	52.710583
0.9399414	51.878372
0.9423828	50.630554
0.9448242	48.893326
0.9472656	46.561157
0.94970703	43.595253
0.95214844	40.10678
0.95458984	36.369026
0.95703125	32.74699
0.95947266	29.574549
0.96191406	27.048817
0.96435547	25.213608
0.9667969	24.03508
0.9692383	23.488365
0.9716797	23.572569
0.9741211	24.264423
0.9765625	25.480783
0.9790039	27.087461
0.9814453	28.93129
0.9838867	30.859404
0.9863281	32.72471
0.98876953	34.398582
0.99121094	35.792988
0.99365234	36.8693
0.99609375	37.612095
0.99853516	37.984592
1.0009766	37.916817
1.003418	37.356365
1.0058594	36.348473
1.0083008	35.072327
1.0107422	33.78269
1.0131836	32.68025
1.015625	31.807285
1.0180664	31.054527
1.0205078	30.2629
1.0229492	29.326088
1.0253906	28.230375
1.027832	27.04343
1.0302734	25.891088
1.0327148	24.940912
1.0351562	24.380936
1.0375977	24.367142
1.0400391	24.949907
1.0424805	26.031988
1.0449219	27.396162
1.0473633	28.778273
1.0498047	29.930126
1.0522461	30.649698
1.0546875	30.787056
1.0571289	30.244606
1.0595703	28.98288
1.0620117	27.029533
1.0644531	24.479584
1.0668945	21.474638
1.0693359	18.171553
1.0717773	14.733489
1.0742188	11.403588
1.0766602	8.731523
1.0791016	7.8021655
1.081543	9.180792
1.0839844	11.822144
1.0864258	14.658017
1.0888672	17.202484
1.0913086	19.307417
1.09375	20.988693
1.0961914	22.3254
1.0986328	23.39962
1.1010742	24.273714
1.1035156	24.993
1.105957	25.591164
1.1083984	26.083193
1.1108398	26.446194
1.1132812	26.603636
1.1157227	26.428942
1.1181641	25.768503
1.1206055	24.472723
1.1230469	22.422993
1.1254883	19.547985
1.1279297	15.836882
1.1303711	11.348392
1.1328125	6.2136054
1.1352539	0.6443997
1.1376953	5.213009
1.1401367	11.047454
1.1425781	16.67961
1.1450195	21.908657
1.1474609	26.538923
1.1499023	30.384235
1.1523438	33.292923
1.1547852	35.182964
1.1572266	36.066597
1.159668	36.049244
1.1621094	35.310116
1.1645508	34.075794
1.1669922	32.599953
1.1694336	31.144382
1.171875	29.947792
1.1743164	29.180971
1.1767578	28.908022
1.1791992	29.090567
1.1816406	29.636553
1.184082	30.461655
1.1865234	31.521503
1.1889648	32.80505
1.1914062	34.303154
1.1938477	35.97515
1.1962891	37.732964
1.1987305	39.446186
1.2011719	40.961647
1.2036133	42.121677
1.2060547	42.775124
1.2084961	42.784485
1.2109375	42.040203
1.2133789	40.48548
1.2158203	38.144947
1.2182617	35.146843
1.2207031	31.732086
1.2231445	28.255116
1.2255859	25.176899
1.2280273	23.018362
1.2304688	22.200274
1.2329102	22.799185
1.2353516	24.492828
1.237793	26.80008
1.2402344	29.322666
1.2426758	31.807203
1.2451172	34.098267
1.2475586	36.074093
1.25	37.609665
1.2524414	38.571686
1.2548828	38.83415
1.2573242	38.301098
1.2597656	36.92995
1.262207	34.750767
1.2646484	31.879122
1.2670898	28.520554
1.2695312	24.970387
1.2719727	21.61187
1.2744141	18.89751
1.2768555	17.254776
1.2792969	16.86654
1.2817383	17.5106
1.2841797	18.721031
1.2866211	20.07779
1.2890625	21.330246
1.2915039	22.376957
1.2939453	23.204758
1.2963867	23.83451
1.2988281	24.283674
1.3012695	24.545444
1.3037109	24.58805
1.3061523	24.377226
1.3085938	23.919197
1.3110352	23.306152
1.3134766	22.743088
1.315918	22.525356
1.3183594	22.952984
1.3208008	24.195944
1.3232422	26.203936
1.3256836	28.727736
1.328125	31.415735
1.3305664	33.911343
1.3330078	35.920887
1.3354492	37.25831
1.3378906	37.865807
1.340332	37.813015
1.3427734	37.26829
1.3452148	36.44595
1.3476562	35.532787
1.3500977	34.615543
1.3525391	33.644985
1.3549805	32.46492
1.3574219	30.895138
1.3598633	28.818953
1.3623047	26.234524
1.3647461	23.256567
1.3671875	20.083855
1.3696289	16.94551
1.3720703	14.047288
1.3745117	11.535088
1.3769531	9.51588
1.3793945	8.151494
1.3818359	7.716928
1.3842773	8.3594885
1.3867188	9.798114
1.3891602	11.524123
1.3916016	13.089574
1.394043	14.176941
1.3964844	14.593756
1.3989258	14.269292
1.4013672	13.249462
1.4038086	11.681501
1.40625	9.781993
1.4086914	7.797634
1.4111328	5.9786286
1.4135742	4.593957
1.4160156	3.9630911
1.418457	4.268584
1.4208984	5.290101
1.4233398	6.694106
1.4257812	8.261916
1.4282227	9.867634
1.4306641	11.463358
1.4331055	13.088275
1.4355469	14.845975
1.4379883	16.837534
1.4404297	19.084513
1.4428711	21.494728
1.4453125	23.884281
1.4477539	26.02891
1.4501953	27.716291
1.4526367	28.786089
1.4550781	29.153915
1.4575195	28.81503
1.4599609	27.833197
1.4624023	26.31943
1.4648438	24.414509
1.4672852	22.28095
1.4697266	20.103907
1.472168	18.095547
1.4746094	16.491142
1.4770508	15.521555
1.4794922	15.352928
1.4819336	16.02954
1.484375	17.481628
1.4868164	19.587643
1.4892578	22.21545
1.4916992	25.221594
1.4941406	28.441986
1.496582	31.694853
1.4990234	34.798042
1.5014648	37.58803
1.5039062	39.935665
1.5063477	41.7575
1.5087891	43.01901
1.5112305	43.730175
1.5136719	43.93212
1.5161133	43.681595
1.5185547	43.03848
1.5209961	42.061047
1.5234375	40.806816
1.5258789	39.336704
1.5283203	37.719
1.5307617	36.032772
1.5332031	34.368904
1.5356445	32.82623
1.5380859	31.497375
1.5405273	30.447084
1.5429688	29.691914
1.5454102	29.19495
1.5478516	28.881216
1.550293	28.662586
1.5527344	28.46333
1.5551758	28.235043
1.5576172	27.963264
1.5600586	27.664951
1.5625	27.381048
1.5649414	27.16427
1.5673828	27.068642
1.5698242	27.139769
1.5722656	27.407328
1.574707	27.875092
1.5771484	28.510378
1.5795898	29.236868
1.5820312	29.940163
1.5844727	30.485191
1.5869141	30.742327
1.5893555	30.613356
1.5917969	30.051859
1.5942383	29.072971
1.5966797	27.75009
1.5991211	26.199696
1.6015625	24.558386
1.6040039	22.958061
1.6064453	21.505497
1.6088867	20.269424
1.6113281	19.278149
1.6137695	18.524874
1.6162109	17.981106
1.6186523	17.615128
1.6210938	17.409954
1.6235352	17.372612
1.6259766	17.524206
1.628418	17.87462
1.6308594	18.394146
1.6333008	19.00545
1.6357422	19.599655
1.6381836	20.063597
1.640625	20.304201
1.6430664	20.260946
1.6455078	19.90796
1.6479492	19.24571
1.6503906	18.285065
1.652832	17.033314
1.6552734	15.488042
1.6577148	13.648176
1.6601562	11.533599
1.6625977	9.202495
1.6650391	6.761626
1.6674805	4.386717
1.6699219	2.4894598
1.6723633	2.293803
1.6748047	3.6712768
1.6772461	5.2182145
1.6796875	6.571849
1.6821289	7.673799
1.6845703	8.532258
1.6870117	9.169939
1.6894531	9.612208
1.6918945	9.892252
1.6943359	10.062212
1.6967773	10.192616
1.6992188	10.355274
1.7016602	10.594768
1.7041016	10.909464
1.706543	11.253355
1.7089844	11.555036
1.7114258	11.741133
1.7138672	11.754697
1.7163086	11.570077
1.71875	11.202172
1.7211914	10.708899
1.7236328	10.187961
1.7260742	9.766549
1.7285156	9.584662
1.730957	9.764343
1.7333984	10.365132
1.7358398	11.3564
1.7382812	12.631144
1.7407227	14.04836
1.7431641	15.466438
1.7456055	16.760637
1.7480469	17.82858
1.7504883	18.594154
1.7529297	19.009193
1.7553711	19.05058
1.7578125	18.712097
1.7602539	17.994905
1.7626953	16.902136
1.7651367	15.441073
1.7675781	13.628831
1.7700195	11.497771
1.7724609	9.097446
1.7749023	6.4929624
1.7773438	3.7614093
1.7797852	0.9860504
1.7822266	1.7509073
1.784668	4.3727727
1.7871094	6.8141823
1.7895508	9.0201025
1.7919922	10.946069
1.7944336	12.55949
1.796875	13.841619
1.7993164	14.79119
1.8017578	15.424705
1.8041992	15.776326
1.8066406	15.894365
1.809082	15.834727
1.8115234	15.650156
1.8139648	15.376337
1.8164062	15.026958
1.8188477	14.602353
1.8212891	14.112639
1.8237305	13.605029
1.8261719	13.184676
1.8286133	13.015989
1.8310547	13.284365
1.8334961	14.112958
1.8359375	15.486459
1.8383789	17.25597
1.8408203	19.208956
1.8432617	21.136507
1.8457031	22.864496
1.8481445	24.258745
1.8505859	25.221169
1.8530273	25.686575
1.8554688	25.622452
1.8579102	25.027813
1.8603516	23.931189
1.862793	22.387993
1.8652344	20.480875
1.8676758	18.320063
1.8701172	16.040592
1.8725586	13.794279
1.875	11.737535
1.8774414	10.016619
1.8798828	8.741548
1.8823242	7.9437714
1.8847656	7.547858
1.887207	7.402805
1.8896484	7.3595343
1.8920898	7.324638
1.8945312	7.27644
1.8969727	7.258561
1.8994141	7.364525
1.9018555	7.703706
1.9042969	8.350765
1.9067383	9.310005
1.9091797	10.520037
1.9116211	11.884698
1.9140625	13.302176
1.9165039	14.680169
1.9189453	15.943054
1.9213867	17.03136
1.9238281	17.902765
1.9262695	18.533949
1.9287109	18.923668
1.9311523	19.093327
1.9335938	19.08091
1.9360352	18.93331
1.9384766	18.699368
1.940918	18.423216
1.9433594	18.135641
1.9458008	17.844303
1.9482422	17.530313
1.9506836	17.155502
1.953125	16.672857
1.9555664	16.037802
1.9580078	15.217239
1.9604492	14.198346
1.9628906	12.996904
1.965332	11.657296
1.9677734	10.246436
1.9702148	8.843871
1.9726562	7.5350337
1.9750977	6.406398
1.9775391	5.530954
1.9799805	4.944409
1.9824219	4.625735
1.9848633	4.5118604
1.9873047	4.538424
1.9897461	4.6681776
1.9921875	4.896094
1.9946289	5.2455854
1.9970703	5.760298
1.9995117	6.4877973
2.0019531	7.449211
2.0043945	8.6228
2.006836	9.947701
2.0092773	11.341321
2.0117188	12.711822
2.0141602	13.963318
2.0166016	15.002658
2.019043	15.752177
2.0214844	16.167465
2.0239258	16.249674
2.0263672	16.048206
2.0288086	15.655681
2.03125	15.199007
2.0336914	14.820201
2.0361328	14.637295
2.0385742	14.69655
2.0410156	14.948926
2.043457	15.277031
2.0458984	15.545994
2.0483398	15.643211
2.0507812	15.493508
2.0532227	15.057187
2.055664	14.324488
2.0581055	13.307392
2.0605469	12.029642
2.0629883	10.517613
2.0654297	8.7952175
2.067871	6.88619
2.0703125	4.8284497
2.072754	2.734936
2.0751953	1.4236898
2.0776367	2.8860588
2.0800781	5.160829
2.0825195	7.4690247
2.084961	9.651281
2.0874023	11.610409
2.0898438	13.271392
2.0922852	14.583053
2.0947266	15.521695
2.097168	16.091549
2.0996094	16.322405
2.1020508	16.268545
2.1044922	16.004333
2.1069336	15.612713
2.109375	15.167545
2.1118164	14.717719
2.1142578	14.282125
2.1166992	13.854334
2.1191406	13.412509
2.121582	12.928637
2.1240234	12.380342
2.1264648	11.759957
2.1289062	11.079947
2.1313477	10.367581
2.133789	9.657614
2.1362305	8.984102
2.1386719	8.375947
2.1411133	7.8514247
2.1435547	7.412515
2.145996	7.0415306
2.1484375	6.703305
2.150879	6.355256
2.1533203	5.960849
2.1557617	5.502091
2.1582031	4.9888563
2.1606445	4.472159
2.163086	4.0644174
2.1655273	3.942298
2.1679688	4.2540045
2.1704102	4.97993
2.1728516	5.9641004
2.175293	7.039525
2.1777344	8.0776615
2.1801758	8.9840145
2.1826172	9.689535
2.1850586	10.150109
2.1875	10.35138
2.1899414	10.30888
2.1923828	10.062476
2.1948242	9.666005
2.1972656	9.177915
2.199707	8.652883
2.2021484	8.130788
2.2045898	7.6248293
2.2070312	7.117451
2.2094727	6.570322
2.211914	5.940345
2.2143555	5.1931033
2.2167969	4.308921
2.2192383	3.2930548
2.2216797	2.2145085
2.224121	1.4387378
2.2265625	1.9319602
2.229004	3.3475072
2.2314453	5.0618606
2.2338867	6.914077
2.2363281	8.838586
2.2387695	10.786569
2.241211	12.712785
2.2436523	14.573644
2.2460938	16.32617
2.2485352	17.929468
2.2509766	19.346085
2.253418	20.545044
2.2558594	21.50294
2.2583008	22.203539
2.2607422	22.636602
2.2631836	22.79657
2.265625	22.683163
2.2680664	22.299625
2.2705078	21.651884
2.2729492	20.746132
2.2753906	19.58962
2.277832	18.192564
2.2802734	16.57021
2.2827148	14.744377
2.2851562	12.74246
2.2875977	10.597403
2.290039	8.3474655
2.2924805	6.036996
2.2949219	3.718928
2.2973633	1.5064435
2.2998047	1.2061913
2.302246	3.2363198
2.3046875	5.287088
2.307129	7.2251577
2.3095703	9.020117
2.3120117	10.653962
2.3144531	12.113086
2.3168945	13.385382
2.319336	14.460343
2.3217773	15.33043
2.3242188	15.991226
2.3266602	16.441816
2.3291016	16.685793
2.331543	16.734274
2.3339844	16.608639
2.3364258	16.3395
2.3388672	15.963564
2.3413086	15.518731
2.34375	15.04111
2.3461914	14.560762
2.3486328	14.097521
2.3510742	13.656288
2.3535156	13.226631
2.355957	12.787692
2.3583984	12.314753
2.3608398	11.785638
2.3632812	11.18318
2.3657227	10.498901
2.368164	9.737307
2.3706055	8.919826
2.3730469	8.0878315
2.3754883	7.304203
2.3779297	6.653862
2.380371	6.2359457
2.3828125	6.135018
2.385254	6.3782053
2.3876953	6.9190745
2.3901367	7.6686068
2.3925781	8.535025
2.3950195	9.443179
2.397461	10.337155
2.3999023	11.178732
2.4023438	11.943352
2.4047852	12.616173
2.4072266	13.188506
2.409668	13.657348
2.4121094	14.027117
2.4145508	14.309717
2.4169922	14.521968
2.4194336	14.68065
2.421875	14.799632
2.4243164	14.889742
2.4267578	14.959503
2.4291992	15.014029
2.4316406	15.05379
2.434082	15.074342
2.4365234	15.068463
2.4389648	15.029341
2.4414062	14.951778
2.4438477	14.83147
2.446289	14.664454
2.4487305	14.44783
