
X-Axis: Frequency (hz)
Y-Axis: Fourier Amplitude (cm/s)
Number of Data Sets: 4


DATASET #1

Name: FAS H1 (cm/s)
Num Points: 2044
Info: 

X, Y Data:
0.009765625	0.15843566
0.012207031	0.20677918
0.014648438	0.26702163
0.017089844	0.34716415
0.01953125	0.45634168
0.021972656	0.60331666
0.024414062	0.7955394
0.026855469	1.038594
0.029296875	1.3357302
0.03173828	1.6875062
0.034179688	2.0917373
0.036621094	2.5436964
0.0390625	3.036458
0.041503906	3.5614524
0.043945312	4.109149
0.04638672	4.669821
0.048828125	5.234263
0.05126953	5.7939973
0.053710938	6.3415737
0.056152344	6.8706794
0.05859375	7.376172
0.061035156	7.8540144
0.06347656	8.301057
0.06591797	8.714941
0.068359375	9.094112
0.07080078	9.437701
0.07324219	9.7451935
0.075683594	10.016166
0.078125	10.250152
0.080566406	10.44652
0.08300781	10.604294
0.08544922	10.721947
0.087890625	10.797502
0.09033203	10.828728
0.09277344	10.81353
0.095214844	10.749863
0.09765625	10.636024
0.10009766	10.471035
0.10253906	10.255226
0.10498047	9.990559
0.10742188	9.681018
0.10986328	9.3331585
0.11230469	8.956815
0.11474609	8.565517
0.1171875	8.176709
0.11962891	7.8115892
0.12207031	7.4949565
0.12451172	7.2541337
0.12695312	7.116812
0.12939453	7.1077647
0.13183594	7.245634
0.13427734	7.540538
0.13671875	7.99393
0.13916016	8.600163
0.14160156	9.348996
0.14404297	10.227615
0.14648438	11.221528
0.14892578	12.314496
0.15136719	13.488473
0.1538086	14.723579
0.15625	15.998075
0.1586914	17.288256
0.16113281	18.568647
0.16357422	19.812548
0.16601562	20.99282
0.16845703	22.082321
0.17089844	23.053947
0.17333984	23.880505
0.17578125	24.534966
0.17822266	24.990934
0.18066406	25.222904
0.18310547	25.2065
0.18554688	24.919285
0.18798828	24.342363
0.19042969	23.462502
0.1928711	22.274078
0.1953125	20.78074
0.1977539	18.99712
0.20019531	16.951113
0.20263672	14.686408
0.20507812	12.265818
0.20751953	9.778254
0.20996094	7.3595085
0.21240234	5.2593675
0.21484375	4.003677
0.21728516	4.1853337
0.21972656	5.378162
0.22216797	6.78662
0.22460938	8.021872
0.22705078	8.918995
0.22949219	9.399939
0.2319336	9.430883
0.234375	9.00874
0.2368164	8.155428
0.23925781	6.9141498
0.24169922	5.3458743
0.24414062	3.5261827
0.24658203	1.5489649
0.24902344	0.64625823
0.25146484	2.6582808
0.25390625	4.6400247
0.25634766	6.4654818
0.25878906	8.065976
0.26123047	9.386496
0.26367188	10.383644
0.26611328	11.024727
0.2685547	11.287088
0.2709961	11.157761
0.2734375	10.63369
0.2758789	9.723118
0.2783203	8.449766
0.28076172	6.8649173
0.28320312	5.088533
0.28564453	3.48781
0.28808594	3.1930935
0.29052734	4.8415327
0.29296875	7.3459277
0.29541016	10.095636
0.29785156	12.854268
0.30029297	15.476124
0.30273438	17.844027
0.30517578	19.858912
0.3076172	21.442102
0.3100586	22.541964
0.3125	23.142052
0.3149414	23.269543
0.3173828	23.001396
0.31982422	22.464415
0.32226562	21.824263
0.32470703	21.256824
0.32714844	20.90168
0.32958984	20.811377
0.33203125	20.92563
0.33447266	21.090803
0.33691406	21.114592
0.33935547	20.82703
0.34179688	20.130417
0.34423828	19.036684
0.3466797	17.698874
0.3491211	16.433512
0.3515625	15.691984
0.3540039	15.889783
0.3564453	17.12583
0.35888672	19.102932
0.36132812	21.344503
0.36376953	23.40856
0.36621094	24.96554
0.36865234	25.804955
0.37109375	25.825527
0.37353516	25.023327
0.37597656	23.478472
0.37841797	21.338827
0.38085938	18.80039
0.38330078	16.084623
0.3857422	13.412724
0.3881836	10.976267
0.390625	8.904542
0.3930664	7.2371583
0.3955078	5.931712
0.39794922	4.9454165
0.40039062	4.3909264
0.40283203	4.596243
0.40527344	5.74078
0.40771484	7.5977955
0.41015625	9.833764
0.41259766	12.16961
0.41503906	14.367489
0.41748047	16.212622
0.41992188	17.512619
0.42236328	18.107237
0.4248047	17.883987
0.4272461	16.797585
0.4296875	14.896292
0.4321289	12.371524
0.4345703	9.691519
0.43701172	7.9332643
0.43945312	8.603725
0.44189453	11.530982
0.44433594	15.354864
0.44677734	19.225252
0.44921875	22.709084
0.45166016	25.556261
0.45410156	27.608982
0.45654297	28.760588
0.45898438	28.930225
0.46142578	28.047253
0.4638672	26.046213
0.4663086	22.87437
0.46875	18.5101
0.4711914	12.9912
0.4736328	6.479298
0.47607422	2.058448
0.47851562	9.456795
0.48095703	17.672146
0.48339844	25.680616
0.48583984	32.96006
0.48828125	39.016033
0.49072266	43.408012
0.49316406	45.790733
0.49560547	45.95065
0.49804688	43.82974
0.5004883	39.532825
0.5029297	33.316677
0.5053711	25.563982
0.5078125	16.750301
0.5102539	7.4455853
0.5126953	2.7291408
0.5151367	11.294515
0.5175781	19.298018
0.52001953	25.95545
0.52246094	30.84277
0.52490234	33.6051
0.52734375	33.970036
0.52978516	31.785625
0.53222656	27.067295
0.53466797	20.04093
0.5371094	11.174009
0.5395508	1.4621307
0.5419922	9.305137
0.5444336	18.890963
0.546875	26.756603
0.5493164	31.974321
0.5517578	33.86386
0.5541992	32.11268
0.5566406	26.930227
0.55908203	19.42823
0.56152344	13.442787
0.56396484	17.010254
0.56640625	27.27232
0.56884766	37.91968
0.57128906	46.3596
0.57373047	51.221546
0.5761719	51.776012
0.5786133	47.876198
0.5810547	39.944843
0.5834961	28.91558
0.5859375	16.113945
0.5883789	3.1043084
0.5908203	8.663339
0.5932617	17.711588
0.5957031	23.14107
0.59814453	24.52137
0.60058594	22.05262
0.60302734	16.709152
0.60546875	11.067567
0.60791016	11.446458
0.61035156	18.231197
0.61279297	25.650526
0.6152344	31.361938
0.6176758	34.54883
0.6201172	35.13165
0.6225586	33.63958
0.625	31.182882
0.6274414	29.341183
0.6298828	29.610573
0.6323242	32.39594
0.6347656	36.829113
0.63720703	41.693813
0.63964844	46.07435
0.64208984	49.43849
0.64453125	51.54781
0.64697266	52.37626
0.64941406	52.064114
0.65185547	50.89448
0.6542969	49.268566
0.6567383	47.650078
0.6591797	46.458992
0.6616211	45.933296
0.6640625	46.039967
0.6665039	46.51591
0.6689453	47.028362
0.6713867	47.361954
0.6738281	47.54998
0.67626953	47.904476
0.67871094	48.904648
0.68115234	50.938766
0.68359375	54.02432
0.68603516	57.730415
0.68847656	61.373028
0.69091797	64.333565
0.6933594	66.333595
0.6958008	67.57151
0.6982422	68.65416
0.7006836	70.27637
0.703125	72.76237
0.7055664	75.800644
0.7080078	78.6172
0.7104492	80.432846
0.7128906	80.86974
0.71533203	80.10484
0.71777344	78.72767
0.72021484	77.36389
0.72265625	76.26981
0.72509766	75.193954
0.72753906	73.622475
0.72998047	71.19556
0.7324219	67.99693
0.7348633	64.57977
0.7373047	61.760384
0.7397461	60.300003
0.7421875	60.653053
0.7446289	62.91685
0.7470703	66.930145
0.7495117	72.359184
0.7519531	78.73054
0.75439453	85.484566
0.75683594	92.07642
0.75927734	98.078
0.76171875	103.22839
0.76416016	107.42843
0.76660156	110.70009
0.76904297	113.12885
0.7714844	114.78881
0.7739258	115.6583
0.7763672	115.56429
0.7788086	114.21024
0.78125	111.30381
0.7836914	106.73391
0.7861328	100.70476
0.7885742	93.74339
0.7910156	86.550674
0.79345703	79.738205
0.79589844	73.58354
0.79833984	67.96598
0.80078125	62.53687
0.80322266	56.99472
0.80566406	51.286964
0.80810547	45.666023
0.8105469	40.633724
0.8129883	36.800247
0.8154297	34.643997
0.8178711	34.25149
0.8203125	35.30661
0.8227539	37.413727
0.8251953	40.401493
0.8276367	44.3044
0.8300781	49.088104
0.83251953	54.40789
0.83496094	59.619934
0.83740234	64.0044
0.83984375	67.01689
0.84228516	68.43426
0.84472656	68.353806
0.84716797	67.0704
0.8496094	64.905846
0.8520508	62.07985
0.8544922	58.681774
0.8569336	54.728428
0.859375	50.23916
0.8618164	45.270615
0.8642578	39.900078
0.8666992	34.194035
0.8691406	28.200138
0.87158203	21.980871
0.87402344	15.672762
0.87646484	9.598869
0.87890625	4.970892
0.88134766	5.9994135
0.88378906	10.533039
0.88623047	15.180721
0.8886719	19.347286
0.8911133	22.87361
0.8935547	25.706089
0.8959961	27.873425
0.8984375	29.496046
0.9008789	30.768003
0.9033203	31.896296
0.9057617	33.020416
0.9082031	34.165962
0.91064453	35.266186
0.91308594	36.236336
0.91552734	37.041393
0.91796875	37.710327
0.92041016	38.287285
0.92285156	38.75615
0.92529297	38.994766
0.9277344	38.798973
0.9301758	37.95917
0.9326172	36.33964
0.9350586	33.91526
0.9375	30.753407
0.9399414	26.969957
0.9423828	22.711685
0.9448242	18.227545
0.9472656	14.104331
0.94970703	11.702603
0.95214844	12.659831
0.95458984	16.45375
0.95703125	21.406836
0.95947266	26.580824
0.96191406	31.616716
0.96435547	36.39818
0.9667969	40.88367
0.9692383	45.029842
0.9716797	48.76898
0.9741211	52.012165
0.9765625	54.652607
0.9790039	56.56184
0.9814453	57.59258
0.9838867	57.60474
0.9863281	56.51896
0.98876953	54.381645
0.99121094	51.406887
0.99365234	47.97136
0.99609375	44.558903
0.99853516	41.67073
1.0009766	39.731346
1.003418	39.009975
1.0058594	39.577457
1.0083008	41.30611
1.0107422	43.90809
1.0131836	46.997402
1.015625	50.15481
1.0180664	52.99043
1.0205078	55.193436
1.0229492	56.558258
1.0253906	56.985374
1.027832	56.46856
1.0302734	55.09002
1.0327148	53.03496
1.0351562	50.62291
1.0375977	48.332306
1.0400391	46.78193
1.0424805	46.625534
1.0449219	48.35299
1.0473633	52.096878
1.0498047	57.591084
1.0522461	64.28504
1.0546875	71.49677
1.0571289	78.532936
1.0595703	84.77109
1.0620117	89.701675
1.0644531	92.93236
1.0668945	94.16905
1.0693359	93.20195
1.0717773	89.91145
1.0742188	84.290924
1.0766602	76.46425
1.0791016	66.69089
1.081543	55.366043
1.0839844	43.058777
1.0864258	30.70998
1.0888672	20.507912
1.0913086	17.918894
1.09375	24.920412
1.0961914	35.263126
1.0986328	45.53118
1.1010742	54.55685
1.1035156	61.822372
1.105957	67.04607
1.1083984	70.06526
1.1108398	70.80333
1.1132812	69.265755
1.1157227	65.543816
1.1181641	59.80707
1.1206055	52.29173
1.1230469	43.288403
1.1254883	33.13853
1.1279297	22.237791
1.1303711	11.081119
1.1328125	2.7166235
1.1352539	11.653551
1.1376953	21.552044
1.1401367	30.48685
1.1425781	38.18156
1.1450195	44.469406
1.1474609	49.23505
1.1499023	52.406036
1.1523438	53.95562
1.1547852	53.90585
1.1572266	52.32507
1.159668	49.322906
1.1621094	45.0539
1.1645508	39.727512
1.1669922	33.6177
1.1694336	27.061623
1.171875	20.459146
1.1743164	14.330867
1.1767578	9.61808
1.1791992	8.206014
1.1816406	10.520161
1.184082	14.235361
1.1865234	18.083912
1.1889648	21.740467
1.1914062	25.134312
1.1938477	28.230875
1.1962891	30.978683
1.1987305	33.314934
1.2011719	35.184273
1.2036133	36.552425
1.2060547	37.40405
1.2084961	37.72671
1.2109375	37.480186
1.2133789	36.568016
1.2158203	34.83285
1.2182617	32.088432
1.2207031	28.185902
1.2231445	23.113525
1.2255859	17.202755
1.2280273	11.900839
1.2304688	11.715014
1.2329102	18.38991
1.2353516	27.867718
1.237793	38.126877
1.2402344	48.356133
1.2426758	58.06824
1.2451172	66.90443
1.2475586	74.582275
1.25	80.875206
1.2524414	85.61145
1.2548828	88.68482
1.2573242	90.075165
1.2597656	89.86797
1.262207	88.26729
1.2646484	85.60122
1.2670898	82.31064
1.2695312	78.91292
1.2719727	75.931595
1.2744141	73.801544
1.2768555	72.77476
1.2792969	72.863815
1.2817383	73.856255
1.2841797	75.39154
1.2866211	77.06899
1.2890625	78.53302
1.2915039	79.51528
1.2939453	79.8409
1.2963867	79.42261
1.2988281	78.256386
1.3012695	76.41718
1.3037109	74.04901
1.3061523	71.34951
1.3085938	68.55219
1.3110352	65.90246
1.3134766	63.61828
1.315918	61.841213
1.3183594	60.601696
1.3208008	59.823734
1.3232422	59.362743
1.3256836	59.05287
1.328125	58.74614
1.3305664	58.33536
1.3330078	57.762142
1.3354492	57.010063
1.3378906	56.091766
1.340332	55.044968
1.3427734	53.93619
1.3452148	52.861694
1.3476562	51.932915
1.3500977	51.25131
1.3525391	50.88899
1.3549805	50.87846
1.3574219	51.215176
1.3598633	51.863083
1.3623047	52.77017
1.3647461	53.88418
1.3671875	55.16426
1.3696289	56.579838
1.3720703	58.101036
1.3745117	59.689095
1.3769531	61.29152
1.3793945	62.846645
1.3818359	64.29243
1.3842773	65.58365
1.3867188	66.71311
1.3891602	67.72875
1.3916016	68.735596
1.394043	69.87129
1.3964844	71.261925
1.3989258	72.9761
1.4013672	74.99404
1.4038086	77.204765
1.40625	79.42303
1.4086914	81.41983
1.4111328	82.95697
1.4135742	83.825134
1.4160156	83.88584
1.418457	83.11122
1.4208984	81.61635
1.4233398	79.668884
1.4257812	77.67131
1.4282227	76.10188
1.4306641	75.41427
1.4331055	75.91037
1.4355469	77.63741
1.4379883	80.365685
1.4404297	83.65756
1.4428711	86.98452
1.4453125	89.83876
1.4477539	91.810005
1.4501953	92.62252
1.4526367	92.136665
1.4550781	90.33267
1.4575195	87.291824
1.4599609	83.17934
1.4624023	78.23128
1.4648438	72.73069
1.4672852	66.978806
1.4697266	61.265316
1.472168	55.8468
1.4746094	50.935215
1.4770508	46.688835
1.4794922	43.21005
1.4819336	40.549103
1.484375	38.722927
1.4868164	37.73202
1.4892578	37.56721
1.4916992	38.20262
1.4941406	39.584225
1.496582	41.627018
1.4990234	44.22268
1.5014648	47.261093
1.5039062	50.6549
1.5063477	54.358315
1.5087891	58.361324
1.5112305	62.66569
1.5136719	67.25156
1.5161133	72.052284
1.5185547	76.94385
1.5209961	81.745865
1.5234375	86.23562
1.5258789	90.17251
1.5283203	93.335014
1.5307617	95.55454
1.5332031	96.74208
1.5356445	96.89691
1.5380859	96.10197
1.5405273	94.50742
1.5429688	92.30167
1.5454102	89.67215
1.5478516	86.763054
1.550293	83.64396
1.5527344	80.30564
1.5551758	76.68142
1.5576172	72.690216
1.5600586	68.28137
1.5625	63.473682
1.5649414	58.37649
1.5673828	53.192253
1.5698242	48.19529
1.5722656	43.692455
1.574707	39.97285
1.5771484	37.255924
1.5795898	35.657253
1.5820312	35.183304
1.5844727	35.749542
1.5869141	37.19614
1.5893555	39.288853
1.5917969	41.71677
1.5942383	44.105114
1.5966797	46.05044
1.5991211	47.174404
1.6015625	47.189354
1.6040039	45.969498
1.6064453	43.627174
1.6088867	40.593575
1.6113281	37.6941
1.6137695	36.10401
1.6162109	36.919376
1.6186523	40.411015
1.6210938	45.836365
1.6235352	52.040676
1.6259766	58.00267
1.628418	63.011837
1.6308594	66.68093
1.6333008	68.93005
1.6357422	69.976555
1.6381836	70.31485
1.640625	70.64805
1.6430664	71.72662
1.6455078	74.11222
1.6479492	77.97397
1.6503906	83.05217
1.652832	88.79482
1.6552734	94.54971
1.6577148	99.7189
1.6601562	103.84878
1.6625977	106.67239
1.6650391	108.11062
1.6674805	108.24892
1.6699219	107.29783
1.6723633	105.54503
1.6748047	103.3018
1.6772461	100.84847
1.6796875	98.38869
1.6821289	96.024254
1.6845703	93.754555
1.6870117	91.50369
1.6894531	89.16004
1.6918945	86.62362
1.6943359	83.84103
1.6967773	80.82678
1.6992188	77.66601
1.7016602	74.51091
1.7041016	71.56645
1.706543	69.06342
1.7089844	67.21782
1.7114258	66.1861
1.7138672	66.02835
1.7163086	66.694305
1.71875	68.03023
1.7211914	69.813225
1.7236328	71.79353
1.7260742	73.73312
1.7285156	75.42774
1.730957	76.71639
1.7333984	77.48482
1.7358398	77.66727
1.7382812	77.24594
1.7407227	76.24273
1.7431641	74.7101
1.7456055	72.72381
1.7480469	70.37517
1.7504883	67.76026
1.7529297	64.969955
1.7553711	62.084007
1.7578125	59.171944
1.7602539	56.295837
1.7626953	53.51061
1.7651367	50.86096
1.7675781	48.388832
1.7700195	46.13908
1.7724609	44.162865
1.7749023	42.51197
1.7773438	41.230816
1.7797852	40.35405
1.7822266	39.903603
1.784668	39.88127
1.7871094	40.25874
1.7895508	40.97802
1.7919922	41.962753
1.7944336	43.129585
1.796875	44.394363
1.7993164	45.67511
1.8017578	46.90204
1.8041992	48.03014
1.8066406	49.041702
1.809082	49.940147
1.8115234	50.73971
1.8139648	51.463802
1.8164062	52.145412
1.8188477	52.825718
1.8212891	53.545082
1.8237305	54.335068
1.8261719	55.218124
1.8286133	56.212757
1.8310547	57.334957
1.8334961	58.595383
1.8359375	59.99378
1.8383789	61.519215
1.8408203	63.152946
1.8432617	64.86582
1.8457031	66.613495
1.8481445	68.33382
1.8505859	69.95109
1.8530273	71.38396
1.8554688	72.547775
1.8579102	73.35472
1.8603516	73.7191
1.862793	73.571625
1.8652344	72.87016
1.8676758	71.60117
1.8701172	69.7716
1.8725586	67.410355
1.875	64.579445
1.8774414	61.381115
1.8798828	57.94948
1.8823242	54.432156
1.8847656	50.982666
1.887207	47.76716
1.8896484	44.958145
1.8920898	42.700764
1.8945312	41.066532
1.8969727	40.040012
1.8994141	39.54235
1.9018555	39.46016
1.9042969	39.65802
1.9067383	39.99143
1.9091797	40.336655
1.9116211	40.61904
1.9140625	40.816235
1.9165039	40.93563
1.9189453	40.994728
1.9213867	41.016342
1.9238281	41.038296
1.9262695	41.11321
1.9287109	41.296505
1.9311523	41.62715
1.9335938	42.11948
1.9360352	42.7641
1.9384766	43.531815
1.940918	44.371326
1.9433594	45.206432
1.9458008	45.936283
1.9482422	46.44418
1.9506836	46.61097
1.953125	46.329407
1.9555664	45.516346
1.9580078	44.11889
1.9604492	42.114845
1.9628906	39.509777
1.965332	36.33648
1.9677734	32.661003
1.9702148	28.586756
1.9726562	24.244263
1.9750977	19.774748
1.9775391	15.328155
1.9799805	11.104362
1.9824219	7.484011
1.9848633	5.390579
1.9873047	5.9534883
1.9897461	8.2075615
1.9921875	10.863042
1.9946289	13.483267
1.9970703	15.950729
1.9995117	18.27347
2.0019531	20.534039
2.0043945	22.838661
2.006836	25.27956
2.0092773	27.94339
2.0117188	30.927658
2.0141602	34.313354
2.0166016	38.119724
2.019043	42.296535
2.0214844	46.756897
2.0239258	51.39868
2.0263672	56.096912
2.0288086	60.698845
2.03125	65.04795
2.0336914	69.01661
2.0361328	72.51735
2.0385742	75.490776
2.0410156	77.89566
2.043457	79.71523
2.0458984	80.967804
2.0483398	81.70183
2.0507812	81.97825
2.0532227	81.85603
2.055664	81.388214
2.0581055	80.62179
2.0605469	79.5941
2.0629883	78.324135
2.0654297	76.811264
2.067871	75.03922
2.0703125	72.98326
2.072754	70.6154
2.0751953	67.910995
2.0776367	64.85729
2.0800781	61.463154
2.0825195	57.76442
2.084961	53.825195
2.0874023	49.7395
2.0898438	45.636436
2.0922852	41.67516
2.0947266	38.02286
2.097168	34.823627
2.0996094	32.168026
2.1020508	30.072992
2.1044922	28.46777
2.1069336	27.200306
2.109375	26.076086
2.1118164	24.913343
2.1142578	23.57793
2.1166992	21.986809
2.1191406	20.099127
2.121582	17.913937
2.1240234	15.467418
2.1264648	12.827564
2.1289062	10.091684
2.1313477	7.427775
2.133789	5.242027
2.1362305	4.521582
2.1386719	5.860015
2.1411133	8.254965
2.1435547	10.944231
2.145996	13.646456
2.1484375	16.239033
2.150879	18.655851
2.1533203	20.856869
2.1557617	22.815243
2.1582031	24.509645
2.1606445	25.923937
2.163086	27.049028
2.1655273	27.883533
2.1679688	28.433537
2.1704102	28.71216
2.1728516	28.742794
2.175293	28.559456
2.1777344	28.20752
2.1801758	27.742464
2.1826172	27.227455
2.1850586	26.729366
2.1875	26.30939
2.1899414	26.015997
2.1923828	25.878738
2.1948242	25.90901
2.1972656	26.099903
2.199707	26.431301
2.2021484	26.872406
2.2045898	27.386427
2.2070312	27.934885
2.2094727	28.483105
2.211914	29.001108
2.2143555	29.464973
2.2167969	29.855078
2.2192383	30.156754
2.2216797	30.361355
2.224121	30.466808
2.2265625	30.477251
2.229004	30.401217
2.2314453	30.250902
2.2338867	30.043337
2.2363281	29.80152
2.2387695	29.555843
2.241211	29.341612
2.2436523	29.195284
2.2460938	29.14972
2.2485352	29.228888
2.2509766	29.44339
2.253418	29.788095
2.2558594	30.242262
2.2583008	30.773232
2.2607422	31.341173
2.2631836	31.903927
2.265625	32.42159
2.2680664	32.86055
2.2705078	33.19864
2.2729492	33.427223
2.2753906	33.549744
2.277832	33.57881
2.2802734	33.53539
2.2827148	33.450565
2.2851562	33.361446
2.2875977	33.300976
2.290039	33.286655
2.2924805	33.3172
2.2949219	33.37695
2.2973633	33.439045
2.2998047	33.463017
2.302246	33.397034
2.3046875	33.18776
2.307129	32.794277
2.3095703	32.192894
2.3120117	31.371866
2.3144531	30.327248
2.3168945	29.066902
2.319336	27.616468
2.3217773	26.015463
2.3242188	24.307793
2.3266602	22.535776
2.3291016	20.74313
2.331543	18.979961
2.3339844	17.298264
2.3364258	15.744552
2.3388672	14.355879
2.3413086	13.165613
2.34375	12.2068
2.3461914	11.510577
2.3486328	11.097146
2.3510742	10.970113
2.3535156	11.11378
2.355957	11.494731
2.3583984	12.064929
2.3608398	12.766481
2.3632812	13.53662
2.3657227	14.315425
2.368164	15.051137
2.3706055	15.701796
2.3730469	16.234465
2.3754883	16.624664
2.3779297	16.859264
2.380371	16.938347
2.3828125	16.873962
2.385254	16.68663
2.3876953	16.402699
2.3901367	16.05361
2.3925781	15.674086
2.3950195	15.297092
2.397461	14.948893
2.3999023	14.645521
2.4023438	14.393568
2.4047852	14.19141
2.4072266	14.030531
2.409668	13.895692
2.4121094	13.768846
2.4145508	13.632625
2.4169922	13.474021
2.4194336	13.284941
2.421875	13.060712
2.4243164	12.801744
2.4267578	12.51602
2.4291992	12.220361
2.4316406	11.939272
2.434082	11.700555
2.4365234	11.53193
2.4389648	11.457394
2.4414062	11.493034
2.4438477	11.642042
2.446289	11.891377
2.4487305	12.214375
2.4511719	12.575575
2.4536133	12.938525
2.4560547	13.270414
2.458496	13.543528
2.4609375	13.734787
2.463379	13.825821
