
X-Axis: Frequency (hz)
Y-Axis: Fourier Amplitude (cm/s)
Number of Data Sets: 4


DATASET #1

Name: FAS H1 (cm/s)
Num Points: 2044
Info: 

X, Y Data:
0.009765625	0.08130514
0.012207031	0.11190937
0.014648438	0.15782374
0.017089844	0.2275735
0.01953125	0.32913992
0.021972656	0.46957535
0.024414062	0.6549281
0.026855469	0.889782
0.029296875	1.1768264
0.03173828	1.5164057
0.034179688	1.9061689
0.036621094	2.341014
0.0390625	2.8134696
0.041503906	3.3144953
0.043945312	3.8341675
0.04638672	4.3622856
0.048828125	4.888949
0.05126953	5.405279
0.053710938	5.9037194
0.056152344	6.3778806
0.05859375	6.822238
0.061035156	7.232266
0.06347656	7.6045866
0.06591797	7.9367595
0.068359375	8.226763
0.07080078	8.472819
0.07324219	8.673751
0.075683594	8.829153
0.078125	8.938947
0.080566406	9.0029545
0.08300781	9.021311
0.08544922	8.995104
0.087890625	8.92665
0.09033203	8.819153
0.09277344	8.6766
0.095214844	8.504248
0.09765625	8.308949
0.10009766	8.098546
0.10253906	7.8805847
0.10498047	7.661145
0.10742188	7.4444714
0.10986328	7.232676
0.11230469	7.0253577
0.11474609	6.8195696
0.1171875	6.6111326
0.11962891	6.3977275
0.12207031	6.182893
0.12451172	5.9798203
0.12695312	5.814189
0.12939453	5.7250876
0.13183594	5.761354
0.13427734	5.969937
0.13671875	6.378688
0.13916016	6.985005
0.14160156	7.758727
0.14404297	8.654115
0.14648438	9.620606
0.14892578	10.608627
0.15136719	11.572157
0.1538086	12.47028
0.15625	13.268227
0.1586914	13.937786
0.16113281	14.457608
0.16357422	14.813837
0.16601562	15.00145
0.16845703	15.026038
0.17089844	14.905569
0.17333984	14.671794
0.17578125	14.371183
0.17822266	14.064512
0.18066406	13.823157
0.18310547	13.719789
0.18554688	13.81331
0.18798828	14.131931
0.19042969	14.662377
0.1928711	15.351279
0.1953125	16.116978
0.1977539	16.86508
0.20019531	17.502018
0.20263672	17.944572
0.20507812	18.125977
0.20751953	17.999582
0.20996094	17.540468
0.21240234	16.745378
0.21484375	15.631223
0.21728516	14.233038
0.21972656	12.602292
0.22216797	10.807134
0.22460938	8.937452
0.22705078	7.121108
0.22949219	5.562704
0.2319336	4.5914655
0.234375	4.5173583
0.2368164	5.19878
0.23925781	6.1712227
0.24169922	7.081016
0.24414062	7.7301307
0.24658203	8.008848
0.24902344	7.861373
0.25146484	7.2766433
0.25390625	6.293705
0.25634766	5.0290804
0.25878906	3.7762754
0.26123047	3.2492893
0.26367188	4.1189675
0.26611328	5.8464813
0.2685547	7.773541
0.2709961	9.57267
0.2734375	11.054171
0.2758789	12.088298
0.2783203	12.586659
0.28076172	12.499464
0.28320312	11.817667
0.28564453	10.580055
0.28808594	8.893386
0.29052734	6.996201
0.29296875	5.4548726
0.29541016	5.347164
0.29785156	7.0551534
0.30029297	9.677524
0.30273438	12.493548
0.30517578	15.128284
0.3076172	17.352953
0.3100586	19.015644
0.3125	20.028265
0.3149414	20.36971
0.3173828	20.091703
0.31982422	19.321434
0.32226562	18.2551
0.32470703	17.132624
0.32714844	16.180065
0.32958984	15.520815
0.33203125	15.10188
0.33447266	14.706194
0.33691406	14.055656
0.33935547	12.941679
0.34179688	11.353087
0.34423828	9.6602335
0.3466797	8.883704
0.3491211	10.244735
0.3515625	13.575317
0.3540039	17.788061
0.3564453	21.99929
0.35888672	25.592373
0.36132812	28.123274
0.36376953	29.296762
0.36621094	28.97122
0.36865234	27.16414
0.37109375	24.048178
0.37353516	19.935652
0.37597656	15.254899
0.37841797	10.541648
0.38085938	6.5505185
0.38330078	4.708873
0.3857422	5.743754
0.3881836	7.575114
0.390625	9.031964
0.3930664	9.929197
0.3955078	10.361335
0.39794922	10.492605
0.40039062	10.476518
0.40283203	10.423693
0.40527344	10.39504
0.40771484	10.399053
0.41015625	10.385467
0.41259766	10.252984
0.41503906	9.894276
0.41748047	9.290314
0.41992188	8.658002
0.42236328	8.580602
0.4248047	9.733109
0.4272461	12.144293
0.4296875	15.19673
0.4321289	18.166433
0.4345703	20.437176
0.43701172	21.535456
0.43945312	21.158579
0.44189453	19.22717
0.44433594	16.002382
0.44677734	12.441832
0.44921875	11.011862
0.45166016	14.0657
0.45410156	19.844723
0.45654297	25.960579
0.45898438	31.028069
0.46142578	34.148
0.4638672	34.720734
0.4663086	32.452263
0.46875	27.419281
0.4711914	20.20349
0.4736328	12.465402
0.47607422	9.850396
0.47851562	16.011831
0.48095703	23.613132
0.48339844	29.219875
0.48583984	31.53364
0.48828125	30.007542
0.49072266	24.69487
0.49316406	16.234934
0.49560547	6.0361547
0.49804688	6.717702
0.5004883	16.850752
0.5029297	25.01368
0.5053711	29.831177
0.5078125	30.679888
0.5102539	27.59939
0.5126953	21.336618
0.5151367	13.541685
0.5175781	8.440344
0.52001953	11.827243
0.52246094	17.42389
0.52490234	20.752275
0.52734375	20.685349
0.52978516	17.220388
0.53222656	11.290395
0.53466797	6.4664454
0.5371094	10.762975
0.5395508	18.301403
0.5419922	24.528337
0.5444336	28.122602
0.546875	28.652527
0.5493164	26.489956
0.5517578	23.09918
0.5541992	21.345592
0.5566406	23.812332
0.55908203	29.362234
0.56152344	34.899418
0.56396484	38.055958
0.56640625	37.461594
0.56884766	32.613873
0.57128906	23.83158
0.57373047	12.187025
0.5761719	0.79213214
0.5786133	12.77901
0.5810547	22.203821
0.5834961	27.50217
0.5859375	28.041374
0.5883789	24.407217
0.5908203	19.147364
0.5932617	17.884932
0.5957031	23.581316
0.59814453	31.320814
0.60058594	36.976566
0.60302734	38.814583
0.60546875	36.64752
0.60791016	31.576305
0.61035156	25.908953
0.61279297	22.672575
0.6152344	23.194881
0.6176758	25.314964
0.6201172	26.403725
0.6225586	25.394428
0.625	22.542439
0.6274414	18.876242
0.6298828	15.677783
0.6323242	13.906717
0.6347656	13.808456
0.63720703	15.224345
0.63964844	17.946035
0.64208984	21.490519
0.64453125	25.063498
0.64697266	27.898228
0.64941406	29.57376
0.65185547	30.137526
0.6542969	30.012558
0.6567383	29.72485
0.6591797	29.593771
0.6616211	29.623493
0.6640625	29.6886
0.6665039	29.811771
0.6689453	30.262188
0.6713867	31.359144
0.6738281	33.12208
0.67626953	35.133175
0.67871094	36.788544
0.68115234	37.702515
0.68359375	37.948616
0.68603516	37.97216
0.68847656	38.192776
0.69091797	38.624035
0.6933594	38.93713
0.6958008	38.899456
0.6982422	38.664516
0.7006836	38.577618
0.703125	38.69008
0.7055664	38.552616
0.7080078	37.55024
0.7104492	35.38155
0.7128906	32.23369
0.71533203	28.580502
0.71777344	24.823608
0.72021484	21.121983
0.72265625	17.616795
0.72509766	14.859229
0.72753906	13.908544
0.72998047	15.481903
0.7324219	19.260826
0.7348633	24.70484
0.7373047	31.41684
0.7397461	38.834023
0.7421875	46.18077
0.7446289	52.726406
0.7470703	58.03811
0.7495117	62.020943
0.7519531	64.73497
0.75439453	66.164894
0.75683594	66.16507
0.75927734	64.630745
0.76171875	61.72799
0.76416016	57.974792
0.76660156	54.111523
0.76904297	50.86605
0.7714844	48.779236
0.7739258	48.150047
0.7763672	49.015316
0.7788086	51.12337
0.78125	53.985954
0.7836914	57.01589
0.7861328	59.640316
0.7885742	61.338657
0.7910156	61.673004
0.79345703	60.368958
0.79589844	57.41151
0.79833984	53.066357
0.80078125	47.7808
0.80322266	42.011364
0.80566406	36.09842
0.80810547	30.285547
0.8105469	24.88521
0.8129883	20.500576
0.8154297	18.08647
0.8178711	18.31808
0.8203125	20.624044
0.8227539	23.675388
0.8251953	26.36737
0.8276367	28.014965
0.8300781	28.25902
0.83251953	26.98864
0.83496094	24.282755
0.83740234	20.348078
0.83984375	15.454924
0.84228516	9.890079
0.84472656	4.087274
0.84716797	3.728758
0.8496094	10.163015
0.8520508	17.205067
0.8544922	24.47723
0.8569336	31.809086
0.859375	39.00937
0.8618164	45.863064
0.8642578	52.14828
0.8666992	57.66396
0.8691406	62.27298
0.87158203	65.95023
0.87402344	68.80019
0.87646484	71.01486
0.87890625	72.782585
0.88134766	74.20394
0.88378906	75.26631
0.88623047	75.87347
0.8886719	75.88548
0.8911133	75.14438
0.8935547	73.4991
0.8959961	70.84897
0.8984375	67.19067
0.9008789	62.635384
0.9033203	57.38433
0.9057617	51.68359
0.9082031	45.790848
0.91064453	39.961674
0.91308594	34.436916
0.91552734	29.412159
0.91796875	24.994146
0.92041016	21.167322
0.92285156	17.79912
0.92529297	14.69467
0.9277344	11.700381
0.9301758	8.8664255
0.9326172	6.782069
0.9350586	6.8291388
0.9375	9.303876
0.9399414	12.892392
0.9423828	16.669682
0.9448242	20.149073
0.9472656	23.044504
0.94970703	25.218409
0.95214844	26.67497
0.95458984	27.542803
0.95703125	28.042742
0.95947266	28.44778
0.96191406	29.033442
0.96435547	30.012304
0.9667969	31.474253
0.9692383	33.37534
0.9716797	35.583347
0.9741211	37.93461
0.9765625	40.256054
0.9790039	42.358387
0.9814453	44.03726
0.9838867	45.099403
0.9863281	45.402378
0.98876953	44.88306
0.99121094	43.567307
0.99365234	41.565784
0.99609375	39.06631
0.99853516	36.324154
1.0009766	33.648605
1.003418	31.380507
1.0058594	29.853909
1.0083008	29.324532
1.0107422	29.877934
1.0131836	31.380302
1.015625	33.533085
1.0180664	36.00258
1.0205078	38.544384
1.0229492	41.06437
1.0253906	43.58879
1.027832	46.16002
1.0302734	48.72545
1.0327148	51.10528
1.0351562	53.05671
1.0375977	54.375042
1.0400391	54.962227
1.0424805	54.82528
1.0449219	54.00917
1.0473633	52.498814
1.0498047	50.15406
1.0522461	46.750366
1.0546875	42.151558
1.0571289	36.59266
1.0595703	31.069199
1.0620117	27.733574
1.0644531	29.127592
1.0668945	35.40905
1.0693359	44.46605
1.0717773	54.41847
1.0742188	64.19359
1.0766602	73.22501
1.0791016	81.19427
1.081543	87.87579
1.0839844	93.066475
1.0864258	96.58589
1.0888672	98.32545
1.0913086	98.30555
1.09375	96.70427
1.0961914	93.84495
1.0986328	90.143456
1.1010742	86.03191
1.1035156	81.88145
1.105957	77.94976
1.1083984	74.36818
1.1108398	71.160034
1.1132812	68.25835
1.1157227	65.51095
1.1181641	62.687885
1.1206055	59.521935
1.1230469	55.78251
1.1254883	51.350872
1.1279297	46.265865
1.1303711	40.735268
1.1328125	35.125797
1.1352539	29.935816
1.1376953	25.72392
1.1401367	22.921259
1.1425781	21.543894
1.1450195	21.086275
1.1474609	20.79464
1.1499023	20.008759
1.1523438	18.292215
1.1547852	15.426707
1.1572266	11.374885
1.159668	6.242551
1.1621094	0.33602634
1.1645508	6.429668
1.1669922	13.451355
1.1694336	20.614931
1.171875	27.703312
1.1743164	34.51482
1.1767578	40.858078
1.1791992	46.55328
1.1816406	51.440514
1.184082	55.388252
1.1865234	58.303646
1.1889648	60.14415
1.1914062	60.932564
1.1938477	60.76723
1.1962891	59.818398
1.1987305	58.30185
1.2011719	56.433582
1.2036133	54.379692
1.2060547	52.211555
1.2084961	49.875244
1.2109375	47.18647
1.2133789	43.873306
1.2158203	39.660152
1.2182617	34.370476
1.2207031	27.99805
1.2231445	20.727127
1.2255859	12.914351
1.2280273	5.191947
1.2304688	3.9086285
1.2329102	10.465231
1.2353516	16.343071
1.237793	20.909021
1.2402344	23.963058
1.2426758	25.47029
1.2451172	25.546495
1.2475586	24.44933
1.25	22.558197
1.2524414	20.326176
1.2548828	18.188946
1.2573242	16.437038
1.2597656	15.116465
1.262207	14.061939
1.2646484	13.056732
1.2670898	11.98875
1.2695312	10.912828
1.2719727	10.019245
1.2744141	9.514694
1.2768555	9.442257
1.2792969	9.596157
1.2817383	9.6427
1.2841797	9.304405
1.2866211	8.488758
1.2890625	7.4146986
1.2915039	6.8327837
1.2939453	7.855897
1.2963867	10.699915
1.2988281	14.744194
1.3012695	19.530201
1.3037109	24.87969
1.3061523	30.763111
1.3085938	37.1914
1.3110352	44.13939
1.3134766	51.50779
1.315918	59.11514
1.3183594	66.70351
1.3208008	73.95191
1.3232422	80.5039
1.3256836	86.01734
1.328125	90.2262
1.3305664	92.98933
1.3330078	94.30933
1.3354492	94.31556
1.3378906	93.22544
1.340332	91.29628
1.3427734	88.778114
1.3452148	85.869995
1.3476562	82.68912
1.3500977	79.2642
1.3525391	75.55513
1.3549805	71.498146
1.3574219	67.054794
1.3598633	62.253307
1.3623047	57.21264
1.3647461	52.14349
1.3671875	47.328644
1.3696289	43.087955
1.3720703	39.7345
1.3745117	37.530045
1.3769531	36.64974
1.3793945	37.157448
1.3818359	38.99746
1.3842773	41.99632
1.3867188	45.873535
1.3891602	50.25998
1.3916016	54.733673
1.394043	58.86567
1.3964844	62.271072
1.3989258	64.65402
1.4013672	65.839806
1.4038086	65.79432
1.40625	64.62872
1.4086914	62.583164
1.4111328	59.98589
1.4135742	57.18429
1.4160156	54.467655
1.418457	52.00466
1.4208984	49.82329
1.4233398	47.845802
1.4257812	45.956406
1.4282227	44.072258
1.4306641	42.18026
1.4331055	40.321465
1.4355469	38.530487
1.4379883	36.761948
1.4404297	34.85076
1.4428711	32.529552
1.4453125	29.496618
1.4477539	25.49991
1.4501953	20.419401
1.4526367	14.370985
1.4550781	8.14736
1.4575195	6.5206785
1.4599609	12.890702
1.4624023	21.077875
1.4648438	29.275206
1.4672852	36.919758
1.4697266	43.708195
1.472168	49.49418
1.4746094	54.26392
1.4770508	58.106613
1.4794922	61.169453
1.4819336	63.60933
1.484375	65.55428
1.4868164	67.0842
1.4892578	68.22895
1.4916992	68.98729
1.4941406	69.35866
1.496582	69.378494
1.4990234	69.13849
1.5014648	68.781906
1.5039062	68.47595
1.5063477	68.37872
1.5087891	68.608604
1.5112305	69.22286
1.5136719	70.20665
1.5161133	71.47551
1.5185547	72.89413
1.5209961	74.30543
1.5234375	75.55402
1.5258789	76.505356
1.5283203	77.059685
1.5307617	77.16228
1.5332031	76.809494
1.5356445	76.04211
1.5380859	74.92823
1.5405273	73.54202
1.5429688	71.942375
1.5454102	70.16117
1.5478516	68.20365
1.550293	66.056496
1.5527344	63.70323
1.5551758	61.14317
1.5576172	58.408382
1.5600586	55.571724
1.5625	52.742535
1.5649414	50.048687
1.5673828	47.614716
1.5698242	45.544827
1.5722656	43.91712
1.574707	42.784466
1.5771484	42.176147
1.5795898	42.098465
1.5820312	42.536182
1.5844727	43.452293
1.5869141	44.787632
1.5893555	46.456852
1.5917969	48.34846
1.5942383	50.32918
1.5966797	52.256714
1.5991211	53.995132
1.6015625	55.42673
1.6040039	56.45772
1.6064453	57.02445
1.6088867	57.10277
1.6113281	56.71783
1.6137695	55.946022
1.6162109	54.903957
1.6186523	53.728207
1.6210938	52.557426
1.6235352	51.517834
1.6259766	50.71629
1.628418	50.241688
1.6308594	50.175804
1.6333008	50.61222
1.6357422	51.66098
1.6381836	53.42854
1.640625	55.97365
1.6430664	59.266537
1.6455078	63.16913
1.6479492	67.4439
1.6503906	71.78611
1.652832	75.87012
1.6552734	79.39759
1.6577148	82.13541
1.6601562	83.93652
1.6625977	84.746025
1.6650391	84.6
1.6674805	83.615906
1.6699219	81.97575
1.6723633	79.89493
1.6748047	77.583664
1.6772461	75.215195
1.6796875	72.90961
1.6821289	70.73319
1.6845703	68.71227
1.6870117	66.85404
1.6894531	65.176926
1.6918945	63.741734
1.6943359	62.668262
1.6967773	62.120922
1.6992188	62.259502
1.7016602	63.175327
1.7041016	64.84419
1.706543	67.11589
1.7089844	69.74303
1.7114258	72.4331
1.7138672	74.904785
1.7163086	76.9345
1.71875	78.38508
1.7211914	79.21449
1.7236328	79.46777
1.7260742	79.25664
1.7285156	78.730484
1.730957	78.045715
1.7333984	77.337006
1.7358398	76.70113
1.7382812	76.18945
1.7407227	75.811615
1.7431641	75.547134
1.7456055	75.36037
1.7480469	75.2141
1.7504883	75.07506
1.7529297	74.91118
1.7553711	74.68494
1.7578125	74.348976
1.7602539	73.84598
1.7626953	73.1105
1.7651367	72.07296
1.7675781	70.66621
1.7700195	68.83804
1.7724609	66.56513
1.7749023	63.865078
1.7773438	60.80215
1.7797852	57.48581
1.7822266	54.060463
1.784668	50.686493
1.7871094	47.513874
1.7895508	44.654682
1.7919922	42.16156
1.7944336	40.019085
1.796875	38.159348
1.7993164	36.494843
1.8017578	34.957775
1.8041992	33.52404
1.8066406	32.21438
1.809082	31.079897
1.8115234	30.186121
1.8139648	29.60287
1.8164062	29.394754
1.8188477	29.606936
1.8212891	30.249483
1.8237305	31.288078
1.8261719	32.64814
1.8286133	34.23083
1.8310547	35.93033
1.8334961	37.648323
1.8359375	39.30075
1.8383789	40.82166
1.8408203	42.162777
1.8432617	43.284473
1.8457031	44.142048
1.8481445	44.678745
1.8505859	44.83855
1.8530273	44.59406
1.8554688	43.975895
1.8579102	43.08904
1.8603516	42.11267
1.862793	41.281456
1.8652344	40.841537
1.8676758	40.980797
1.8701172	41.762894
1.8725586	43.104027
1.875	44.808495
1.8774414	46.636143
1.8798828	48.356976
1.8823242	49.784256
1.8847656	50.784645
1.887207	51.277405
1.8896484	51.225224
1.8920898	50.627197
1.8945312	49.51504
1.8969727	47.953995
1.8994141	46.042995
1.9018555	43.9131
1.9042969	41.722668
1.9067383	39.650032
1.9091797	37.879333
1.9116211	36.576942
1.9140625	35.861103
1.9165039	35.77514
1.9189453	36.280365
1.9213867	37.271515
1.9238281	38.60756
1.9262695	40.140167
1.9287109	41.73025
1.9311523	43.255024
1.9335938	44.613075
1.9360352	45.73644
1.9384766	46.604763
1.940918	47.254284
1.9433594	47.774994
1.9458008	48.30032
1.9482422	48.99506
1.9506836	50.03204
1.953125	51.552727
1.9555664	53.61906
1.9580078	56.189175
1.9604492	59.12927
1.9628906	62.246937
1.965332	65.320145
1.9677734	68.11711
1.9702148	70.418686
1.9726562	72.04723
1.9750977	72.88842
1.9775391	72.8969
1.9799805	72.08825
1.9824219	70.53474
1.9848633	68.36962
1.9873047	65.7855
1.9897461	63.014988
1.9921875	60.29448
1.9946289	57.830074
1.9970703	55.77356
1.9995117	54.206062
2.0019531	53.12
2.0043945	52.416912
2.006836	51.932682
2.0092773	51.485798
2.0117188	50.91813
2.0141602	50.1129
2.0166016	48.99797
2.019043	47.545456
2.0214844	45.771534
2.0239258	43.73197
2.0263672	41.50723
2.0288086	39.18712
2.03125	36.85812
2.0336914	34.5988
2.0361328	32.47753
2.0385742	30.550476
2.0410156	28.859516
2.043457	27.430517
2.0458984	26.271805
2.0483398	25.372221
2.0507812	24.699953
2.0532227	24.201
2.055664	23.80292
2.0581055	23.420702
2.0605469	22.967915
2.0629883	22.369907
2.0654297	21.577066
2.067871	20.574284
2.0703125	19.38365
2.072754	18.065792
2.0751953	16.715265
2.0776367	15.453798
2.0800781	14.411456
2.0825195	13.696084
2.084961	13.360036
2.0874023	13.388672
2.0898438	13.720358
2.0922852	14.280159
2.0947266	15.005373
2.097168	15.853909
2.0996094	16.802929
2.1020508	17.840284
2.1044922	18.954866
2.1069336	20.127964
2.109375	21.32927
2.1118164	22.52162
2.1142578	23.668781
2.1166992	24.744114
2.1191406	25.732403
2.121582	26.627995
2.1240234	27.431946
2.1264648	28.151878
2.1289062	28.799564
2.1313477	29.385761
2.133789	29.909306
2.1362305	30.350735
2.1386719	30.673857
2.1411133	30.832857
2.1435547	30.778814
2.145996	30.46318
2.1484375	29.841467
2.150879	28.880562
2.1533203	27.568253
2.1557617	25.917906
2.1582031	23.966537
2.1606445	21.76979
2.163086	19.397562
2.1655273	16.931665
2.1679688	14.46099
2.1704102	12.074594
2.1728516	9.85267
2.175293	7.860799
2.1777344	6.1531754
2.1801758	4.782912
2.1826172	3.8226647
2.1850586	3.3723893
2.1875	3.4831915
2.1899414	4.063819
2.1923828	4.9596696
2.1948242	6.0535984
2.1972656	7.266884
2.199707	8.533343
2.2021484	9.788222
2.2045898	10.965783
2.2070312	12.001761
2.2094727	12.834676
2.211914	13.407942
2.2143555	13.675574
2.2167969	13.609443
2.2192383	13.204821
2.2216797	12.482717
2.224121	11.493478
2.2265625	10.327195
2.229004	9.133299
2.2314453	8.137556
2.2338867	7.619449
2.2363281	7.780952
2.2387695	8.583246
2.241211	9.790755
2.2436523	11.149043
2.2460938	12.477148
2.2485352	13.674028
2.2509766	14.699861
2.253418	15.557032
2.2558594	16.278584
2.2583008	16.920507
2.2607422	17.54954
2.2631836	18.22147
2.265625	18.963215
2.2680664	19.768528
2.2705078	20.607407
2.2729492	21.4358
2.2753906	22.20321
2.277832	22.859404
2.2802734	23.364717
2.2827148	23.697388
2.2851562	23.85412
2.2875977	23.846684
2.290039	23.698023
2.2924805	23.44027
2.2949219	23.11271
2.2973633	22.757872
2.2998047	22.416649
2.302246	22.124308
2.3046875	21.907478
2.307129	21.783737
2.3095703	21.761778
2.3120117	21.841125
2.3144531	22.012157
2.3168945	22.256775
2.319336	22.551353
2.3217773	22.872467
2.3242188	23.198278
2.3266602	23.508463
2.3291016	23.781326
2.331543	23.994717
2.3339844	24.128756
2.3364258	24.167427
2.3388672	24.09673
2.3413086	23.901209
2.34375	23.564522
2.3461914	23.0716
2.3486328	22.412943
2.3510742	21.584179
2.3535156	20.584377
2.355957	19.415493
2.3583984	18.084587
2.3608398	16.607132
2.3632812	15.008786
2.3657227	13.328897
2.368164	11.626719
2.3706055	9.997955
2.3730469	8.601086
2.3754883	7.676608
2.3779297	7.4817986
2.380371	8.090899
2.3828125	9.3083315
2.385254	10.842473
2.3876953	12.450251
2.3901367	13.955974
2.3925781	15.231663
2.3950195	16.18343
2.397461	16.74702
2.3999023	16.887373
2.4023438	16.598612
2.4047852	15.90312
2.4072266	14.852822
2.409668	13.530236
2.4121094	12.053413
2.4145508	10.584712
2.4169922	9.340857
2.4194336	8.581471
2.421875	8.520363
2.4243164	9.183088
2.4267578	10.39781
2.4291992	11.938252
2.4316406	13.624796
2.434082	15.337277
2.4365234	16.997862
2.4389648	18.55281
2.4414062	19.96013
2.4438477	21.187046
2.446289	22.209227
2.4487305	23.011662
2.4511719	23.586082
2.4536133	23.929325
2.4560547	24.043694
2.458496	23.937044
2.4609375	23.620495
2.463379	23.103687
