
X-Axis: Frequency (hz)
Y-Axis: Fourier Amplitude (cm/s)
Number of Data Sets: 4


DATASET #1

Name: FAS H1 (cm/s)
Num Points: 2044
Info: 

X, Y Data:
0.009765625	0.06285671
0.012207031	0.091002576
0.014648438	0.13429385
0.017089844	0.19938669
0.01953125	0.29365644
0.021972656	0.42413267
0.024414062	0.5958606
0.026855469	0.81202716
0.029296875	1.0748866
0.03173828	1.3852173
0.034179688	1.7401906
0.036621094	2.1325183
0.0390625	2.5524538
0.041503906	2.9903593
0.043945312	3.4368033
0.04638672	3.8806493
0.048828125	4.309076
0.05126953	4.710872
0.053710938	5.0792465
0.056152344	5.410325
0.05859375	5.6992755
0.061035156	5.93989
0.06347656	6.1286106
0.06591797	6.2675104
0.068359375	6.3616853
0.07080078	6.4144244
0.07324219	6.4272103
0.075683594	6.404857
0.078125	6.358885
0.080566406	6.3043666
0.08300781	6.254283
0.08544922	6.218236
0.087890625	6.206078
0.09033203	6.230012
0.09277344	6.3007016
0.095214844	6.4202366
0.09765625	6.578771
0.10009766	6.758196
0.10253906	6.9390554
0.10498047	7.1037736
0.10742188	7.234327
0.10986328	7.309585
0.11230469	7.3085985
0.11474609	7.218965
0.1171875	7.0422683
0.11962891	6.7917237
0.12207031	6.486821
0.12451172	6.1534247
0.12695312	5.830475
0.12939453	5.571762
0.13183594	5.432571
0.13427734	5.4465466
0.13671875	5.613496
0.13916016	5.908154
0.14160156	6.296555
0.14404297	6.7462645
0.14648438	7.2320924
0.14892578	7.741735
0.15136719	8.279198
0.1538086	8.8623295
0.15625	9.514249
0.1586914	10.25262
0.16113281	11.081434
0.16357422	11.98769
0.16601562	12.942603
0.16845703	13.905255
0.17089844	14.82667
0.17333984	15.654221
0.17578125	16.336905
0.17822266	16.831572
0.18066406	17.108826
0.18310547	17.156763
0.18554688	16.982056
0.18798828	16.608438
0.19042969	16.073002
0.1928711	15.419828
0.1953125	14.691405
0.1977539	13.919783
0.20019531	13.121962
0.20263672	12.303799
0.20507812	11.474163
0.20751953	10.666241
0.20996094	9.957069
0.21240234	9.46913
0.21484375	9.331487
0.21728516	9.600108
0.21972656	10.198287
0.22216797	10.940486
0.22460938	11.607238
0.22705078	12.005788
0.22949219	12.000021
0.2319336	11.520586
0.234375	10.565703
0.2368164	9.1982765
0.23925781	7.5435767
0.24169922	5.791823
0.24414062	4.21565
0.24658203	3.1909132
0.24902344	2.980374
0.25146484	3.2516267
0.25390625	3.4681258
0.25634766	3.3694704
0.25878906	2.9320476
0.26123047	2.3659067
0.26367188	2.2845902
0.26611328	3.209636
0.2685547	4.7667418
0.2709961	6.545986
0.2734375	8.332355
0.2758789	9.98538
0.2783203	11.388696
0.28076172	12.432729
0.28320312	13.012064
0.28564453	13.032061
0.28808594	12.421351
0.29052734	11.145735
0.29296875	9.220397
0.29541016	6.7208486
0.29785156	3.8066168
0.30029297	1.1663475
0.30273438	3.155989
0.30517578	6.204475
0.3076172	8.914507
0.3100586	11.060418
0.3125	12.557839
0.3149414	13.463254
0.3173828	13.980508
0.31982422	14.416965
0.32226562	15.057909
0.32470703	15.99982
0.32714844	17.07755
0.32958984	17.949728
0.33203125	18.246397
0.33447266	17.680689
0.33691406	16.110252
0.33935547	13.573899
0.34179688	10.353395
0.34423828	7.238943
0.3466797	6.2962484
0.3491211	8.833543
0.3515625	12.772269
0.3540039	16.671675
0.3564453	19.929245
0.35888672	22.218376
0.36132812	23.359499
0.36376953	23.308979
0.36621094	22.173952
0.36865234	20.226257
0.37109375	17.902222
0.37353516	15.769877
0.37597656	14.401586
0.37841797	14.09102
0.38085938	14.637413
0.38330078	15.543649
0.3857422	16.366543
0.3881836	16.85209
0.390625	16.905535
0.3930664	16.521772
0.3955078	15.726365
0.39794922	14.546528
0.40039062	13.026905
0.40283203	11.305347
0.40527344	9.759931
0.40771484	9.118059
0.41015625	9.991159
0.41259766	12.020254
0.41503906	14.236124
0.41748047	15.767666
0.41992188	16.015228
0.42236328	14.711526
0.4248047	12.093657
0.4272461	9.41621
0.4296875	9.546661
0.4321289	13.318368
0.4345703	18.101269
0.43701172	21.97764
0.43945312	23.965393
0.44189453	23.676731
0.44433594	21.289677
0.44677734	17.6534
0.44921875	14.536536
0.45166016	14.274
0.45410156	17.025959
0.45654297	20.518255
0.45898438	22.913837
0.46142578	23.312637
0.4638672	21.441671
0.4663086	17.491056
0.46875	12.056857
0.4711914	6.3539824
0.4736328	4.6881113
0.47607422	8.79841
0.47851562	12.722708
0.48095703	15.054065
0.48339844	15.662569
0.48583984	14.894625
0.48828125	13.322574
0.49072266	11.427098
0.49316406	9.31219
0.49560547	6.7423296
0.49804688	3.5204854
0.5004883	0.6186089
0.5029297	4.0726147
0.5053711	7.048499
0.5078125	8.631213
0.5102539	8.624475
0.5126953	7.8532166
0.5151367	8.661764
0.5175781	12.328843
0.52001953	17.259048
0.52246094	21.811354
0.52490234	25.007349
0.52734375	26.385084
0.52978516	25.919678
0.53222656	23.991304
0.53466797	21.457533
0.5371094	19.801878
0.5395508	20.628574
0.5419922	23.956457
0.5444336	28.023434
0.546875	30.904549
0.5493164	31.409805
0.5517578	29.428469
0.5541992	26.191338
0.5566406	24.113142
0.55908203	24.958778
0.56152344	27.59088
0.56396484	29.642023
0.56640625	29.99586
0.56884766	29.237423
0.57128906	28.911753
0.57373047	29.909178
0.5761719	31.400457
0.5786133	31.786194
0.5810547	30.069946
0.5834961	26.320824
0.5859375	21.553999
0.5883789	17.43483
0.5908203	15.600747
0.5932617	16.162088
0.5957031	17.605833
0.59814453	18.639002
0.60058594	18.884441
0.60302734	18.725658
0.60546875	18.957964
0.60791016	20.069473
0.61035156	21.647533
0.61279297	22.755455
0.6152344	22.770138
0.6176758	21.92009
0.6201172	21.336767
0.6225586	22.252287
0.625	24.624521
0.6274414	27.161812
0.6298828	28.592651
0.6323242	28.410418
0.6347656	26.985363
0.63720703	25.316294
0.63964844	24.341864
0.64208984	24.080475
0.64453125	23.662584
0.64697266	22.363274
0.64941406	20.464521
0.65185547	19.249264
0.6542969	19.692665
0.6567383	21.042177
0.6591797	21.819218
0.6616211	21.526384
0.6640625	21.05718
0.6665039	21.770632
0.6689453	23.816166
0.6713867	26.037321
0.6738281	27.44386
0.67626953	27.94611
0.67871094	28.042707
0.68115234	28.12076
0.68359375	28.105453
0.68603516	27.78114
0.68847656	27.252964
0.69091797	26.934282
0.6933594	27.074083
0.6958008	27.420748
0.6982422	27.460028
0.7006836	26.883907
0.703125	25.798367
0.7055664	24.600729
0.7080078	23.703415
0.7104492	23.3313
0.7128906	23.53919
0.71533203	24.359272
0.71777344	25.872936
0.72021484	28.144592
0.72265625	31.111406
0.72509766	34.527466
0.72753906	37.99168
0.72998047	41.04487
0.7324219	43.299297
0.7348633	44.54265
0.7373047	44.755737
0.7397461	44.024433
0.7421875	42.398186
0.7446289	39.799713
0.7470703	36.056263
0.7495117	31.021387
0.7519531	24.702208
0.75439453	17.367712
0.75683594	9.931469
0.75927734	7.0720563
0.76171875	13.339243
0.76416016	21.718576
0.76660156	29.851625
0.76904297	37.134945
0.7714844	43.320694
0.7739258	48.30896
0.7763672	52.038692
0.7788086	54.41624
0.78125	55.31285
0.7836914	54.628456
0.7861328	52.372242
0.7885742	48.704094
0.7910156	43.91662
0.79345703	38.377464
0.79589844	32.47412
0.79833984	26.591974
0.80078125	21.126577
0.80322266	16.500927
0.80566406	13.13417
0.80810547	11.29041
0.8105469	10.881877
0.8129883	11.626047
0.8154297	13.452785
0.8178711	16.504053
0.8203125	20.826145
0.8227539	26.234818
0.8251953	32.41311
0.8276367	39.05553
0.8300781	45.942936
0.83251953	52.91347
0.83496094	59.76023
0.83740234	66.15571
0.83984375	71.688896
0.84228516	76.01277
0.84472656	79.009254
0.84716797	80.86005
0.8496094	81.96241
0.8520508	82.70971
0.8544922	83.25047
0.8569336	83.3797
0.859375	82.63852
0.8618164	80.55883
0.8642578	76.90985
0.8666992	71.83275
0.8691406	65.81733
0.87158203	59.541454
0.87402344	53.665524
0.87646484	48.72467
0.87890625	45.200577
0.88134766	43.626053
0.88378906	44.400223
0.88623047	47.33476
0.8886719	51.51393
0.8911133	55.6873
0.8935547	58.746834
0.8959961	59.988827
0.8984375	59.19115
0.9008789	56.579998
0.9033203	52.7276
0.9057617	48.3984
0.9082031	44.36837
0.91064453	41.253574
0.91308594	39.40618
0.91552734	38.925556
0.91796875	39.75501
0.92041016	41.7643
0.92285156	44.75995
0.92529297	48.455475
0.9277344	52.458973
0.9301758	56.29673
0.9326172	59.468456
0.9350586	61.517536
0.9375	62.10125
0.9399414	61.041786
0.9423828	58.34114
0.9448242	54.15816
0.9472656	48.76047
0.94970703	42.482193
0.95214844	35.7195
0.95458984	28.986597
0.95703125	23.047846
0.95947266	19.050236
0.96191406	18.107178
0.96435547	19.976591
0.9667969	23.17577
0.9692383	26.464733
0.9716797	29.22993
0.9741211	31.271843
0.9765625	32.633385
0.9790039	33.503162
0.9814453	34.139965
0.9838867	34.799984
0.9863281	35.683914
0.98876953	36.927143
0.99121094	38.612713
0.99365234	40.745216
0.99609375	43.176033
0.99853516	45.555176
1.0009766	47.38995
1.003418	48.193974
1.0058594	47.639248
1.0083008	45.63819
1.0107422	42.338085
1.0131836	38.05817
1.015625	33.22255
1.0180664	28.33655
1.0205078	24.032967
1.0229492	21.137209
1.0253906	20.487198
1.027832	22.293541
1.0302734	25.882456
1.0327148	30.295656
1.0351562	34.721798
1.0375977	38.527245
1.0400391	41.219917
1.0424805	42.461735
1.0449219	42.10345
1.0473633	40.20535
1.0498047	37.02973
1.0522461	33.027016
1.0546875	28.840954
1.0571289	25.317194
1.0595703	23.35697
1.0620117	23.434805
1.0644531	25.2152
1.0668945	27.954836
1.0693359	31.099455
1.0717773	34.414406
1.0742188	37.835365
1.0766602	41.32774
1.0791016	44.843327
1.081543	48.3223
1.0839844	51.67409
1.0864258	54.733784
1.0888672	57.248196
1.0913086	58.9229
1.09375	59.499565
1.0961914	58.811718
1.0986328	56.786423
1.1010742	53.41395
1.1035156	48.721714
1.105957	42.776833
1.1083984	35.707203
1.1108398	27.719103
1.1132812	19.11249
1.1157227	10.410374
1.1181641	4.553507
1.1206055	10.132478
1.1230469	18.200336
1.1254883	25.762266
1.1279297	32.32412
1.1303711	37.64487
1.1328125	41.588894
1.1352539	44.08975
1.1376953	45.134705
1.1401367	44.767014
1.1425781	43.103676
1.1450195	40.35458
1.1474609	36.82958
1.1499023	32.93905
1.1523438	29.196474
1.1547852	26.218628
1.1572266	24.63067
1.159668	24.769625
1.1621094	26.39785
1.1645508	28.851063
1.1669922	31.439365
1.1694336	33.677452
1.171875	35.31115
1.1743164	36.259003
1.1767578	36.54198
1.1791992	36.242104
1.1816406	35.50178
1.184082	34.543743
1.1865234	33.65168
1.1889648	33.067635
1.1914062	32.845905
1.1938477	32.792034
1.1962891	32.56149
1.1987305	31.835894
1.2011719	30.451603
1.2036133	28.450348
1.2060547	26.097502
1.2084961	23.888607
1.2109375	22.464294
1.2133789	22.294827
1.2158203	23.296303
1.2182617	24.894962
1.2207031	26.493692
1.2231445	27.809662
1.2255859	28.940313
1.2280273	30.242235
1.2304688	32.081955
1.2329102	34.56028
1.2353516	37.396217
1.237793	40.046417
1.2402344	41.922436
1.2426758	42.56367
1.2451172	41.72279
1.2475586	39.387238
1.25	35.765186
1.2524414	31.258406
1.2548828	26.425352
1.2573242	21.932617
1.2597656	18.473883
1.262207	16.582134
1.2646484	16.333044
1.2670898	17.291946
1.2695312	18.86568
1.2719727	20.560026
1.2744141	21.968279
1.2768555	22.707966
1.2792969	22.425777
1.2817383	20.885077
1.2841797	18.144361
1.2866211	14.935137
1.2890625	13.406082
1.2915039	16.274393
1.2939453	22.950228
1.2963867	31.316938
1.2988281	40.072227
1.3012695	48.502815
1.3037109	56.21282
1.3061523	63.019352
1.3085938	68.87604
1.3110352	73.784164
1.3134766	77.70701
1.315918	80.51837
1.3183594	82.00926
1.3208008	81.943924
1.3232422	80.138275
1.3256836	76.53826
1.328125	71.27931
1.3305664	64.72333
1.3330078	57.475784
1.3354492	50.389893
1.3378906	44.542374
1.340332	41.07023
1.3427734	40.706177
1.3452148	43.292675
1.3476562	47.952225
1.3500977	53.69786
1.3525391	59.757797
1.3549805	65.57073
1.3574219	70.7083
1.3598633	74.84079
1.3623047	77.75057
1.3647461	79.363235
1.3671875	79.76456
1.3696289	79.190506
1.3720703	77.98881
1.3745117	76.54864
1.3769531	75.21225
1.3793945	74.183784
1.3818359	73.48345
1.3842773	72.97377
1.3867188	72.44645
1.3891602	71.72217
1.3916016	70.7091
1.394043	69.4102
1.3964844	67.88404
1.3989258	66.18584
1.4013672	64.31181
1.4038086	62.17302
1.40625	59.615986
1.4086914	56.48294
1.4111328	52.685944
1.4135742	48.257988
1.4160156	43.36568
1.418457	38.2794
1.4208984	33.321888
1.4233398	28.802404
1.4257812	24.957642
1.4282227	21.90488
1.4306641	19.634521
1.4331055	18.049534
1.4355469	17.039484
1.4379883	16.560291
1.4404297	16.681091
1.4428711	17.575914
1.4453125	19.433638
1.4477539	22.333496
1.4501953	26.187548
1.4526367	30.784727
1.4550781	35.877163
1.4575195	41.253925
1.4599609	46.779186
1.4624023	52.38943
1.4648438	58.056595
1.4672852	63.73945
1.4697266	69.34667
1.472168	74.722244
1.4746094	79.658714
1.4770508	83.92944
1.4794922	87.338295
1.4819336	89.76543
1.484375	91.19081
1.4868164	91.68069
1.4892578	91.34502
1.4916992	90.2909
1.4941406	88.595695
1.496582	86.304794
1.4990234	83.44693
1.5014648	80.057175
1.5039062	76.20747
1.5063477	72.03381
1.5087891	67.74481
1.5112305	63.59563
1.5136719	59.82983
1.5161133	56.62043
1.5185547	54.04219
1.5209961	52.08277
1.5234375	50.678715
1.5258789	49.751106
1.5283203	49.225616
1.5307617	49.03249
1.5332031	49.087273
1.5356445	49.266582
1.5380859	49.405777
1.5405273	49.329525
1.5429688	48.902206
1.5454102	48.07081
1.5478516	46.87753
1.550293	45.444397
1.5527344	43.935596
1.5551758	42.51249
1.5576172	41.291218
1.5600586	40.311745
1.5625	39.525375
1.5649414	38.80571
1.5673828	37.978756
1.5698242	36.865124
1.5722656	35.322315
1.574707	33.27272
1.5771484	30.71133
1.5795898	27.68897
1.5820312	24.27816
1.5844727	20.539341
1.5869141	16.506014
1.5893555	12.211069
1.5917969	7.7983375
1.5942383	4.1737742
1.5966797	5.210701
1.5991211	9.635933
1.6015625	14.475206
1.6040039	19.109081
1.6064453	23.340271
1.6088867	27.120712
1.6113281	30.491314
1.6137695	33.523335
1.6162109	36.2574
1.6186523	38.668484
1.6210938	40.668877
1.6235352	42.150497
1.6259766	43.037838
1.628418	43.32717
1.6308594	43.09643
1.6333008	42.48116
1.6357422	41.63125
1.6381836	40.665985
1.640625	39.65274
1.6430664	38.61473
1.6455078	37.558327
1.6479492	36.501163
1.6503906	35.486256
1.652832	34.579517
1.6552734	33.854576
1.6577148	33.372955
1.6601562	33.165077
1.6625977	33.219425
1.6650391	33.48386
1.6674805	33.881207
1.6699219	34.33664
1.6723633	34.80279
1.6748047	35.276794
1.6772461	35.798206
1.6796875	36.43369
1.6821289	37.247833
1.6845703	38.276222
1.6870117	39.507683
1.6894531	40.887054
1.6918945	42.33301
1.6943359	43.76265
1.6967773	45.109142
1.6992188	46.32736
1.7016602	47.39124
1.7041016	48.287876
1.706543	49.01629
1.7089844	49.585075
1.7114258	50.00911
1.7138672	50.300354
1.7163086	50.46189
1.71875	50.484142
1.7211914	50.348732
1.7236328	50.03188
1.7260742	49.513374
1.7285156	48.788208
1.730957	47.880188
1.7333984	46.847916
1.7358398	45.773464
1.7382812	44.738228
1.7407227	43.7997
1.7431641	42.97897
1.7456055	42.261066
1.7480469	41.60163
1.7504883	40.93568
1.7529297	40.18989
1.7553711	39.29698
1.7578125	38.205868
1.7602539	36.88341
1.7626953	35.310825
1.7651367	33.485126
1.7675781	31.43165
1.7700195	29.220629
1.7724609	26.977003
1.7749023	24.873709
1.7773438	23.105764
1.7797852	21.839909
1.7822266	21.150543
1.784668	20.983805
1.7871094	21.194334
1.7895508	21.636683
1.7919922	22.243605
1.7944336	23.047571
1.796875	24.148489
1.7993164	25.648745
1.8017578	27.59268
1.8041992	29.935709
1.8066406	32.55274
1.809082	35.27053
1.8115234	37.89924
1.8139648	40.252518
1.8164062	42.16159
1.8188477	43.484955
1.8212891	44.12164
1.8237305	44.021564
1.8261719	43.194286
1.8286133	41.711548
1.8310547	39.70205
1.8334961	37.33833
1.8359375	34.816067
1.8383789	32.332603
1.8408203	30.066912
1.8432617	28.16265
1.8457031	26.710697
1.8481445	25.734068
1.8505859	25.191242
1.8530273	24.998785
1.8554688	25.067831
1.8579102	25.332798
1.8603516	25.762077
1.862793	26.349995
1.8652344	27.09141
1.8676758	27.951004
1.8701172	28.84363
1.8725586	29.64137
1.875	30.199587
1.8774414	30.386772
1.8798828	30.104458
1.8823242	29.298803
1.8847656	27.96712
1.887207	26.166088
1.8896484	24.019194
1.8920898	21.725872
1.8945312	19.569038
1.8969727	17.907675
1.8994141	17.09947
1.9018555	17.324223
1.9042969	18.44196
1.9067383	20.078472
1.9091797	21.828135
1.9116211	23.374712
1.9140625	24.518316
1.9165039	25.163515
1.9189453	25.30766
1.9213867	25.031897
1.9238281	24.495352
1.9262695	23.919365
1.9287109	23.55251
1.9311523	23.611935
1.9335938	24.21783
1.9360352	25.357504
1.9384766	26.901285
1.940918	28.654245
1.9433594	30.41089
1.9458008	31.993383
1.9482422	33.270687
1.9506836	34.159664
1.953125	34.61704
1.9555664	34.629333
1.9580078	34.207005
1.9604492	33.382008
1.9628906	32.20511
1.965332	30.740799
1.9677734	29.061838
1.9702148	27.243872
1.9726562	25.361769
1.9750977	23.485146
1.9775391	21.675358
1.9799805	19.98256
1.9824219	18.447735
1.9848633	17.104517
1.9873047	15.981509
1.9897461	15.100852
1.9921875	14.475587
1.9946289	14.10685
1.9970703	13.985464
1.9995117	14.095773
2.0019531	14.420744
2.0043945	14.945784
2.006836	15.658333
2.0092773	16.545877
2.0117188	17.592182
2.0141602	18.773844
2.0166016	20.056793
2.019043	21.393
2.0214844	22.720839
2.0239258	23.970354
2.0263672	25.070433
2.0288086	25.956299
2.03125	26.575333
2.0336914	26.891062
2.0361328	26.887938
2.0385742	26.574188
2.0410156	25.98145
2.043457	25.15971
2.0458984	24.169489
2.0483398	23.076931
2.0507812	21.94924
2.0532227	20.850853
2.055664	19.837297
2.0581055	18.949728
2.0605469	18.213854
2.0629883	17.642128
2.0654297	17.235834
2.067871	16.984531
2.0703125	16.866013
2.072754	16.853117
2.0751953	16.92179
2.0776367	17.054983
2.0800781	17.238417
2.0825195	17.45491
2.084961	17.684471
2.0874023	17.907751
2.0898438	18.107567
2.0922852	18.268705
2.0947266	18.379498
2.097168	18.435785
2.0996094	18.442986
2.1020508	18.41279
2.1044922	18.356775
2.1069336	18.284422
2.109375	18.2038
2.1118164	18.123646
2.1142578	18.052164
2.1166992	17.997166
2.1191406	17.966715
2.121582	17.969275
2.1240234	18.011595
2.1264648	18.09648
2.1289062	18.22272
2.1313477	18.385775
2.133789	18.577585
2.1362305	18.786396
2.1386719	18.998806
2.1411133	19.20318
2.1435547	19.39036
2.145996	19.552397
2.1484375	19.680317
2.150879	19.76284
2.1533203	19.78688
2.1557617	19.734804
2.1582031	19.581944
2.1606445	19.296585
2.163086	18.846693
2.1655273	18.208767
2.1679688	17.37636
2.1704102	16.365215
2.1728516	15.218128
2.175293	14.008507
2.1777344	12.842595
2.1801758	11.849576
2.1826172	11.153558
2.1850586	10.827881
2.1875	10.857555
2.1899414	11.144635
2.1923828	11.555343
2.1948242	11.970323
2.1972656	12.312276
2.199707	12.551885
2.2021484	12.701528
2.2045898	12.803586
2.2070312	12.914742
2.2094727	13.088935
2.211914	13.35922
2.2143555	13.72896
2.2167969	14.176425
2.2192383	14.667654
2.2216797	15.169085
2.224121	15.651961
2.2265625	16.0898
2.229004	16.454088
2.2314453	16.710049
2.2338867	16.812462
2.2363281	16.706478
2.2387695	16.331978
2.241211	15.635461
2.2436523	14.581919
2.2460938	13.162992
2.2485352	11.399484
2.2509766	9.338263
2.253418	7.046991
2.2558594	4.612864
2.2583008	2.1765494
2.2607422	1.0782971
2.2631836	3.2004676
2.265625	5.537578
2.2680664	7.7868433
2.2705078	9.910921
2.2729492	11.892708
2.2753906	13.716074
2.277832	15.36176
2.2802734	16.807835
2.2827148	18.029865
2.2851562	19.003023
2.2875977	19.710184
2.290039	20.152946
2.2924805	20.358559
2.2949219	20.377253
2.2973633	20.2732
2.2998047	20.114826
2.302246	19.969553
2.3046875	19.896265
2.307129	19.934126
2.3095703	20.093296
2.3120117	20.355207
2.3144531	20.68449
2.3168945	21.038456
2.319336	21.369164
2.3217773	21.621164
2.3242188	21.732203
2.3266602	21.640379
2.3291016	21.291883
2.331543	20.645142
2.3339844	19.673098
2.3364258	18.36637
2.3388672	16.737051
2.3413086	14.8201
2.34375	12.669158
2.3461914	10.349374
2.3486328	7.928799
2.3510742	5.4735117
2.3535156	3.0488818
2.355957	0.82184917
2.3583984	1.7644405
2.3608398	3.898823
2.3632812	5.9505887
2.3657227	7.89024
2.368164	9.711322
2.3706055	11.406981
2.3730469	12.966681
2.3754883	14.375964
2.3779297	15.61968
2.380371	16.684137
2.3828125	17.560448
2.385254	18.247532
2.3876953	18.756605
2.3901367	19.112024
2.3925781	19.3509
2.3950195	19.516
2.397461	19.648909
2.3999023	19.782574
2.4023438	19.935986
2.4047852	20.109634
2.4072266	20.283857
2.409668	20.422485
2.4121094	20.48109
2.4145508	20.417974
2.4169922	20.20149
2.4194336	19.813784
2.421875	19.252205
2.4243164	18.5294
2.4267578	17.673092
2.4291992	16.724016
2.4316406	15.732919
2.434082	14.756118
2.4365234	13.851249
2.4389648	13.071654
2.4414062	12.460608
2.4438477	12.044404
2.446289	11.827826
2.4487305	11.793678
2.4511719	11.90694
