
X-Axis: Frequency (hz)
Y-Axis: Fourier Amplitude (cm/s)
Number of Data Sets: 4


DATASET #1

Name: FAS H1 (cm/s)
Num Points: 2044
Info: 

X, Y Data:
0.009765625	0.065391235
0.012207031	0.09630648
0.014648438	0.13488452
0.017089844	0.1831019
0.01953125	0.2413527
0.021972656	0.30843735
0.024414062	0.3841421
0.026855469	0.4701215
0.029296875	0.5675306
0.03173828	0.6749728
0.034179688	0.7900779
0.036621094	0.9126744
0.0390625	1.0454158
0.041503906	1.1912516
0.043945312	1.3511167
0.04638672	1.5247053
0.048828125	1.7129941
0.05126953	1.9189901
0.053710938	2.1452343
0.056152344	2.3905005
0.05859375	2.6494517
0.061035156	2.9156966
0.06347656	3.1846945
0.06591797	3.452937
0.068359375	3.7145293
0.07080078	3.9597838
0.07324219	4.1781583
0.075683594	4.3623366
0.078125	4.508699
0.080566406	4.6139574
0.08300781	4.67268
0.08544922	4.679229
0.087890625	4.631979
0.09033203	4.534842
0.09277344	4.394558
0.095214844	4.2174153
0.09765625	4.009242
0.10009766	3.7781177
0.10253906	3.5357902
0.10498047	3.2953918
0.10742188	3.0672724
0.10986328	2.8563561
0.11230469	2.6625664
0.11474609	2.4829986
0.1171875	2.3137894
0.11962891	2.150907
0.12207031	1.9910601
0.12451172	1.8345513
0.12695312	1.6904194
0.12939453	1.5801473
0.13183594	1.5328901
0.13427734	1.569209
0.13671875	1.6862117
0.13916016	1.8609324
0.14160156	2.06369
0.14404297	2.2655277
0.14648438	2.440444
0.14892578	2.5681925
0.15136719	2.6381001
0.1538086	2.6514366
0.15625	2.6215746
0.1586914	2.5733228
0.16113281	2.5418012
0.16357422	2.5670452
0.16601562	2.6803753
0.16845703	2.88888
0.17089844	3.1723602
0.17333984	3.4939513
0.17578125	3.8121908
0.17822266	4.0880766
0.18066406	4.289623
0.18310547	4.3961434
0.18554688	4.400909
0.18798828	4.3098435
0.19042969	4.1364865
0.1928711	3.8968134
0.1953125	3.6081011
0.1977539	3.2923205
0.20019531	2.9791856
0.20263672	2.7014627
0.20507812	2.4798462
0.20751953	2.3077016
0.20996094	2.1535723
0.21240234	1.982908
0.21484375	1.7812413
0.21728516	1.5700387
0.21972656	1.4201599
0.22216797	1.4383175
0.22460938	1.6679796
0.22705078	2.02771
0.22949219	2.3967025
0.2319336	2.6807916
0.234375	2.8240845
0.2368164	2.8076448
0.23925781	2.646422
0.24169922	2.3874803
0.24414062	2.110465
0.24658203	1.9182404
0.24902344	1.8868997
0.25146484	1.9959636
0.25390625	2.1486583
0.25634766	2.2535095
0.25878906	2.2601433
0.26123047	2.1555743
0.26367188	1.9549971
0.26611328	1.7019984
0.2685547	1.4836031
0.2709961	1.4346354
0.2734375	1.6383959
0.2758789	2.0188453
0.2783203	2.436528
0.28076172	2.777276
0.28320312	2.9588547
0.28564453	2.9253066
0.28808594	2.6457098
0.29052734	2.1161366
0.29296875	1.3644217
0.29541016	0.47416008
0.29785156	0.6263693
0.30029297	1.5755236
0.30273438	2.392888
0.30517578	2.958431
0.3076172	3.200313
0.3100586	3.096168
0.3125	2.6774144
0.3149414	2.0318427
0.3173828	1.3322653
0.31982422	0.9910399
0.32226562	1.3652763
0.32470703	1.9625866
0.32714844	2.4645054
0.32958984	2.7898684
0.33203125	2.932473
0.33447266	2.914463
0.33691406	2.7637806
0.33935547	2.5042596
0.34179688	2.1655684
0.34423828	1.8285235
0.3466797	1.7062132
0.3491211	2.0456667
0.3515625	2.7674928
0.3540039	3.5961704
0.3564453	4.279796
0.35888672	4.603706
0.36132812	4.40132
0.36376953	3.5879006
0.36621094	2.1950994
0.36865234	0.44981778
0.37109375	1.6911951
0.37353516	3.5563452
0.37597656	5.0091825
0.37841797	5.8294106
0.38085938	5.9208217
0.38330078	5.311946
0.3857422	4.131687
0.3881836	2.5739603
0.390625	0.95119596
0.3930664	1.2789905
0.3955078	2.824233
0.39794922	4.1024246
0.40039062	4.875606
0.40283203	4.995035
0.40527344	4.416949
0.40771484	3.2761848
0.41015625	2.0689018
0.41259766	2.0481381
0.41503906	3.135746
0.41748047	4.056431
0.41992188	4.3607283
0.42236328	3.9798462
0.4248047	3.0399058
0.4272461	1.777334
0.4296875	0.4699113
0.4321289	0.7353048
0.4345703	1.6053231
0.43701172	2.1797557
0.43945312	2.5276365
0.44189453	2.7521973
0.44433594	2.9210973
0.44677734	3.049232
0.44921875	3.1361089
0.45166016	3.200706
0.45410156	3.2743084
0.45654297	3.362929
0.45898438	3.4213667
0.46142578	3.386568
0.4638672	3.3012486
0.4663086	3.475075
0.46875	4.294697
0.4711914	5.633974
0.4736328	6.9451437
0.47607422	7.67856
0.47851562	7.501432
0.48095703	6.4675865
0.48339844	5.2196565
0.48583984	4.9634047
0.48828125	5.9535823
0.49072266	7.0017476
0.49316406	7.2594247
0.49560547	6.5535903
0.49804688	5.1848373
0.5004883	3.7778735
0.5029297	3.0815418
0.5053711	3.2127452
0.5078125	3.4672883
0.5102539	3.375314
0.5126953	2.8387065
0.5151367	1.9470136
0.5175781	0.9401727
0.52001953	0.51984835
0.52246094	0.9083129
0.52490234	0.93538666
0.52734375	0.57593787
0.52978516	0.7974234
0.53222656	1.5649742
0.53466797	2.0709898
0.5371094	2.0408218
0.5395508	1.4542938
0.5419922	0.5185145
0.5444336	0.6398013
0.546875	1.4666475
0.5493164	1.923556
0.5517578	1.9565156
0.5541992	1.6546116
0.5566406	1.190506
0.55908203	0.8292493
0.56152344	0.8751929
0.56396484	1.1196288
0.56640625	1.2027212
0.56884766	1.017396
0.57128906	0.8462157
0.57373047	1.3666521
0.5761719	2.3116574
0.5786133	3.2717447
0.5810547	4.106555
0.5834961	4.827478
0.5859375	5.4895163
0.5883789	6.0653677
0.5908203	6.417871
0.5932617	6.394597
0.5957031	5.9385967
0.59814453	5.1318607
0.60058594	4.1576767
0.60302734	3.2063074
0.60546875	2.3771777
0.60791016	1.6637168
0.61035156	1.0822225
0.61279297	0.908129
0.6152344	1.2969471
0.6176758	1.8284963
0.6201172	2.2613351
0.6225586	2.5035582
0.625	2.5189075
0.6274414	2.328364
0.6298828	2.0510364
0.6323242	1.9375778
0.6347656	2.2048259
0.63720703	2.752993
0.63964844	3.3461027
0.64208984	3.830855
0.64453125	4.145947
0.64697266	4.292193
0.64941406	4.306523
0.65185547	4.238858
0.6542969	4.132964
0.6567383	4.0146613
0.6591797	3.8889554
0.6616211	3.7432458
0.6640625	3.549512
0.6665039	3.2611403
0.6689453	2.811809
0.6713867	2.1352983
0.6738281	1.2443467
0.67626953	0.8367761
0.67871094	1.9701009
0.68115234	3.3927252
0.68359375	4.6502376
0.68603516	5.5330715
0.68847656	5.945054
0.69091797	5.913981
0.6933594	5.575539
0.6958008	5.122716
0.6982422	4.7365074
0.7006836	4.526467
0.703125	4.51468
0.7055664	4.666212
0.7080078	4.9248204
0.7104492	5.2310786
0.7128906	5.5500765
0.71533203	5.9308705
0.71777344	6.55132
0.72021484	7.629603
0.72265625	9.210585
0.72509766	11.085733
0.72753906	12.920745
0.72998047	14.408245
0.7324219	15.352412
0.7348633	15.686738
0.7373047	15.44421
0.7397461	14.708377
0.7421875	13.575529
0.7446289	12.142162
0.7470703	10.50701
0.7495117	8.765536
0.7519531	6.987988
0.75439453	5.195865
0.75683594	3.3667045
0.75927734	1.480978
0.76171875	0.53096366
0.76416016	2.3647227
0.76660156	4.031397
0.76904297	5.3471766
0.7714844	6.2140164
0.7739258	6.6152263
0.7763672	6.610312
0.7788086	6.306059
0.78125	5.8198853
0.7836914	5.2519393
0.7861328	4.672903
0.7885742	4.123612
0.7910156	3.617974
0.79345703	3.1503203
0.79589844	2.7228627
0.79833984	2.410159
0.80078125	2.405329
0.80322266	2.8458438
0.80566406	3.5924778
0.80810547	4.3937364
0.8105469	5.058498
0.8129883	5.487184
0.8154297	5.66463
0.8178711	5.6376023
0.8203125	5.4794674
0.8227539	5.2515955
0.8251953	4.975805
0.8276367	4.63113
0.8300781	4.1761475
0.83251953	3.5824907
0.83496094	2.8585193
0.83740234	2.0528178
0.83984375	1.2452189
0.84228516	0.5936429
0.84472656	0.65565056
0.84716797	1.1945918
0.8496094	1.718712
0.8520508	2.1543453
0.8544922	2.4960308
0.8569336	2.7741592
0.859375	3.0356069
0.8618164	3.2936015
0.8642578	3.4879642
0.8666992	3.5063977
0.8691406	3.2507389
0.87158203	2.6974344
0.87402344	1.9247767
0.87646484	1.1044333
0.87890625	0.50042313
0.88134766	0.4694579
0.88378906	0.72775745
0.88623047	1.230019
0.8886719	2.0724125
0.8911133	3.1087174
0.8935547	4.144334
0.8959961	5.0463266
0.8984375	5.7897053
0.9008789	6.455735
0.9033203	7.1662292
0.9057617	7.9797716
0.9082031	8.832986
0.91064453	9.573231
0.91308594	10.034401
0.91552734	10.096646
0.91796875	9.711769
0.92041016	8.900632
0.92285156	7.7328095
0.92529297	6.3029227
0.9277344	4.7189565
0.9301758	3.116629
0.9326172	1.751616
0.9350586	1.3592038
0.9375	2.0678802
0.9399414	2.8637106
0.9423828	3.537023
0.9448242	4.2784896
0.9472656	5.3767505
0.94970703	6.944641
0.95214844	8.826807
0.95458984	10.721523
0.95703125	12.31809
0.95947266	13.392015
0.96191406	13.866515
0.96435547	13.829536
0.9667969	13.490514
0.9692383	13.079004
0.9716797	12.730744
0.9741211	12.442004
0.9765625	12.126788
0.9790039	11.711479
0.9814453	11.185349
0.9838867	10.588399
0.9863281	9.969753
0.98876953	9.356005
0.99121094	8.755204
0.99365234	8.189578
0.99609375	7.724545
0.99853516	7.455928
1.0009766	7.448058
1.003418	7.6816382
1.0058594	8.083618
1.0083008	8.603768
1.0107422	9.238541
1.0131836	9.973909
1.015625	10.715127
1.0180664	11.28337
1.0205078	11.481837
1.0229492	11.174242
1.0253906	10.332136
1.027832	9.041984
1.0302734	7.48353
1.0327148	5.8990827
1.0351562	4.5671797
1.0375977	3.74703
1.0400391	3.4974754
1.0424805	3.556865
1.0449219	3.5988219
1.0473633	3.4455366
1.0498047	3.0577316
1.0522461	2.486976
1.0546875	1.8558232
1.0571289	1.3682287
1.0595703	1.2523439
1.0620117	1.4402827
1.0644531	1.686029
1.0668945	1.9563167
1.0693359	2.402954
1.0717773	3.1447089
1.0742188	4.118426
1.0766602	5.1479063
1.0791016	6.044365
1.081543	6.653909
1.0839844	6.875348
1.0864258	6.6626477
1.0888672	6.0223775
1.0913086	5.0221796
1.09375	3.8460882
1.0961914	2.9903238
1.0986328	3.3071618
1.1010742	4.711788
1.1035156	6.4535327
1.105957	8.117596
1.1083984	9.501382
1.1108398	10.497149
1.1132812	11.057458
1.1157227	11.182372
1.1181641	10.913602
1.1206055	10.329716
1.1230469	9.536947
1.1254883	8.65001
1.1279297	7.7614274
1.1303711	6.9098644
1.1328125	6.0728106
1.1352539	5.2076864
1.1376953	4.347187
1.1401367	3.7412717
1.1425781	3.8744926
1.1450195	4.90637
1.1474609	6.4492917
1.1499023	8.114515
1.1523438	9.677063
1.1547852	11.034325
1.1572266	12.17531
1.159668	13.159329
1.1621094	14.089959
1.1645508	15.076999
1.1669922	16.18698
1.1694336	17.40395
1.171875	18.630045
1.1743164	19.734167
1.1767578	20.619572
1.1791992	21.268692
1.1816406	21.737967
1.184082	22.105745
1.1865234	22.40875
1.1889648	22.612537
1.1914062	22.631784
1.1938477	22.376488
1.1962891	21.790657
1.1987305	20.869495
1.2011719	19.659048
1.2036133	18.244976
1.2060547	16.73335
1.2084961	15.226254
1.2109375	13.79817
1.2133789	12.482994
1.2158203	11.278227
1.2182617	10.165717
1.2207031	9.141521
1.2231445	8.241303
1.2255859	7.5454526
1.2280273	7.1461997
1.2304688	7.078856
1.2329102	7.2728148
1.2353516	7.5782704
1.237793	7.8346577
1.2402344	7.9173403
1.2426758	7.75186
1.2451172	7.3111115
1.2475586	6.6046686
1.25	5.6650906
1.2524414	4.535861
1.2548828	3.2682447
1.2573242	1.9403211
1.2597656	0.8542871
1.262207	1.341018
1.2646484	2.514535
1.2670898	3.5818853
1.2695312	4.4027996
1.2719727	4.918882
1.2744141	5.1213655
1.2768555	5.054576
1.2792969	4.8157406
1.2817383	4.5418944
1.2841797	4.3763657
1.2866211	4.4196463
1.2890625	4.696914
1.2915039	5.1776314
1.2939453	5.817875
1.2963867	6.581536
1.2988281	7.4397144
1.3012695	8.368209
1.3037109	9.349224
1.3061523	10.37308
1.3085938	11.43318
1.3110352	12.516302
1.3134766	13.596148
1.315918	14.635415
1.3183594	15.593211
1.3208008	16.428764
1.3232422	17.10258
1.3256836	17.582191
1.328125	17.860258
1.3305664	17.978432
1.3330078	18.040924
1.3354492	18.199825
1.3378906	18.61027
1.340332	19.374727
1.3427734	20.509472
1.3452148	21.948328
1.3476562	23.569557
1.3500977	25.224577
1.3525391	26.760195
1.3549805	28.034525
1.3574219	28.92754
1.3598633	29.346056
1.3623047	29.227856
1.3647461	28.549587
1.3671875	27.339224
1.3696289	25.686811
1.3720703	23.745188
1.3745117	21.715586
1.3769531	19.824957
1.3793945	18.301605
1.3818359	17.34798
1.3842773	17.093788
1.3867188	17.53582
1.3891602	18.51842
1.3916016	19.787176
1.394043	21.074116
1.3964844	22.158854
1.3989258	22.895426
1.4013672	23.216362
1.4038086	23.124693
1.40625	22.678493
1.4086914	21.967358
1.4111328	21.085411
1.4135742	20.109425
1.4160156	19.092
1.418457	18.070843
1.4208984	17.083918
1.4233398	16.177475
1.4257812	15.399407
1.4282227	14.782109
1.4306641	14.324677
1.4331055	13.986514
1.4355469	13.69724
1.4379883	13.377393
1.4404297	12.95906
1.4428711	12.399721
1.4453125	11.686574
1.4477539	10.833232
1.4501953	9.869958
1.4526367	8.831188
1.4550781	7.746362
1.4575195	6.6391487
1.4599609	5.5371885
1.4624023	4.486582
1.4648438	3.566353
1.4672852	2.8981621
1.4697266	2.6232436
1.472168	2.7908328
1.4746094	3.2989593
1.4770508	4.0201893
1.4794922	4.875821
1.4819336	5.815745
1.484375	6.7971807
1.4868164	7.780094
1.4892578	8.73057
1.4916992	9.624765
1.4941406	10.448262
1.496582	11.189548
1.4990234	11.829415
1.5014648	12.334499
1.5039062	12.660714
1.5063477	12.766794
1.5087891	12.630305
1.5112305	12.25841
1.5136719	11.688634
1.5161133	10.980699
1.5185547	10.203308
1.5209961	9.421037
1.5234375	8.686202
1.5258789	8.040338
1.5283203	7.5251913
1.5307617	7.196147
1.5332031	7.1185803
1.5356445	7.336759
1.5380859	7.8361187
1.5405273	8.541422
1.5429688	9.351187
1.5454102	10.17155
1.5478516	10.928406
1.550293	11.564576
1.5527344	12.032698
1.5551758	12.294043
1.5576172	12.322515
1.5600586	12.111385
1.5625	11.677933
1.5649414	11.064205
1.5673828	10.334672
1.5698242	9.5714655
1.5722656	8.867399
1.574707	8.313017
1.5771484	7.9741244
1.5795898	7.8658075
1.5820312	7.941462
1.5844727	8.112074
1.5869141	8.281571
1.5893555	8.376801
1.5917969	8.362639
1.5942383	8.244608
1.5966797	8.061812
1.5991211	7.872596
1.6015625	7.736261
1.6040039	7.6962547
1.6064453	7.770717
1.6088867	7.952806
1.6113281	8.2174015
1.6137695	8.529338
1.6162109	8.850454
1.6186523	9.145149
1.6210938	9.386005
1.6235352	9.558256
1.6259766	9.663977
1.628418	9.72212
1.6308594	9.7640295
1.6333008	9.823794
1.6357422	9.927496
1.6381836	10.085817
1.640625	10.293809
1.6430664	10.536109
1.6455078	10.793075
1.6479492	11.043612
1.6503906	11.263269
1.652832	11.421568
1.6552734	11.482158
1.6577148	11.407557
1.6601562	11.167509
1.6625977	10.748013
1.6650391	10.158848
1.6674805	9.439106
1.6699219	8.658798
1.6723633	7.9179964
1.6748047	7.3392696
1.6772461	7.046718
1.6796875	7.122977
1.6821289	7.5657444
1.6845703	8.290037
1.6870117	9.174681
1.6894531	10.10638
1.6918945	11.00012
1.6943359	11.800014
1.6967773	12.470637
1.6992188	12.984302
1.7016602	13.31259
1.7041016	13.426047
1.706543	13.300731
1.7089844	12.927059
1.7114258	12.314248
1.7138672	11.489309
1.7163086	10.492036
1.71875	9.369551
1.7211914	8.17265
1.7236328	6.9519863
1.7260742	5.7528334
1.7285156	4.6067467
1.730957	3.525185
1.7333984	2.5012043
1.7358398	1.5343666
1.7382812	0.78399426
1.7407227	1.0751007
1.7431641	2.0436616
1.7456055	3.132096
1.7480469	4.2516384
1.7504883	5.378663
1.7529297	6.5040874
1.7553711	7.6195993
1.7578125	8.70944
1.7602539	9.747822
1.7626953	10.701845
1.7651367	11.536683
1.7675781	12.221077
1.7700195	12.731629
1.7724609	13.056228
1.7749023	13.195721
1.7773438	13.163297
1.7797852	12.981968
1.7822266	12.681005
1.784668	12.292422
1.7871094	11.84858
1.7895508	11.379647
1.7919922	10.911679
1.7944336	10.464063
1.796875	10.047764
1.7993164	9.664834
1.8017578	9.308905
1.8041992	8.966777
1.8066406	8.620537
1.809082	8.250282
1.8115234	7.837154
1.8139648	7.3664727
1.8164062	6.830233
1.8188477	6.2294683
1.8212891	5.5757694
1.8237305	4.8909698
1.8261719	4.205587
1.8286133	3.5561147
1.8310547	2.9836438
1.8334961	2.5303016
1.8359375	2.2288074
1.8383789	2.0820692
1.8408203	2.052307
1.8432617	2.079972
1.8457031	2.1106858
1.8481445	2.1073825
1.8505859	2.0534184
1.8530273	1.9601402
1.8554688	1.8789166
1.8579102	1.9005427
1.8603516	2.1066647
1.862793	2.499674
1.8652344	3.0100222
1.8676758	3.5509124
1.8701172	4.0454774
1.8725586	4.4331303
1.875	4.6729875
1.8774414	4.7483015
1.8798828	4.6691966
1.8823242	4.4729533
1.8847656	4.2202535
1.887207	3.9860296
1.8896484	3.8412135
1.8920898	3.8260095
1.8945312	3.9318986
1.8969727	4.111363
1.8994141	4.307069
1.9018555	4.475639
1.9042969	4.597218
1.9067383	4.6745367
1.9091797	4.727288
1.9116211	4.7843
1.9140625	4.876603
1.9165039	5.031213
1.9189453	5.267557
1.9213867	5.5957203
1.9238281	6.0165033
1.9262695	6.523499
1.9287109	7.1057916
1.9311523	7.751253
1.9335938	8.447284
1.9360352	9.180414
1.9384766	9.933728
1.940918	10.685452
1.9433594	11.410301
1.9458008	12.08252
1.9482422	12.679974
1.9506836	13.186129
1.953125	13.591433
1.9555664	13.894275
1.9580078	14.102362
1.9604492	14.232961
1.9628906	14.310478
1.965332	14.361041
1.9677734	14.406835
1.9702148	14.462465
1.9726562	14.535069
1.9750977	14.625953
1.9775391	14.732045
1.9799805	14.847799
1.9824219	14.967481
1.9848633	15.088237
1.9873047	15.21045
1.9897461	15.335436
1.9921875	15.46137
1.9946289	15.58014
1.9970703	15.676533
1.9995117	15.728333
2.0019531	15.708285
2.0043945	15.587997
2.006836	15.344411
2.0092773	14.966475
2.0117188	14.458796
2.0141602	13.841031
2.0166016	13.144182
2.019043	12.405065
2.0214844	11.659689
2.0239258	10.935566
2.0263672	10.245091
2.0288086	9.584329
2.03125	8.9388275
2.0336914	8.294452
2.0361328	7.6471486
2.0385742	7.007606
2.0410156	6.4009295
2.043457	5.861156
2.0458984	5.4221907
2.0483398	5.1050653
2.0507812	4.9070315
2.0532227	4.799365
2.055664	4.7362723
2.0581055	4.669077
2.0605469	4.557871
2.0629883	4.377654
2.0654297	4.120334
2.067871	3.7946005
2.0703125	3.4244998
2.072754	3.0471125
2.0751953	2.7077901
2.0776367	2.4512136
2.0800781	2.3062692
2.0825195	2.2719135
2.084961	2.318661
2.0874023	2.4069705
2.0898438	2.50474
2.0922852	2.5944893
2.0947266	2.672472
2.097168	2.7445524
2.0996094	2.8202827
2.1020508	2.9072416
2.1044922	3.0072877
2.1069336	3.1163566
2.109375	3.2265437
2.1118164	3.3288038
2.1142578	3.4151862
2.1166992	3.4804947
2.1191406	3.5234084
2.121582	3.5462644
2.1240234	3.5536416
2.1264648	3.5506177
2.1289062	3.54116
2.1313477	3.5280364
2.133789	3.5126185
2.1362305	3.495108
2.1386719	3.4742289
2.1411133	3.447109
2.1435547	3.409718
2.145996	3.357651
2.1484375	3.28727
2.150879	3.1965697
2.1533203	3.0856762
2.1557617	2.9567442
2.1582031	2.8135195
2.1606445	2.6602097
2.163086	2.5006237
2.1655273	2.3377032
2.1679688	2.174268
2.1704102	2.0146203
2.1728516	1.8661716
2.175293	1.7398745
2.1777344	1.649043
2.1801758	1.606247
2.1826172	1.6190537
2.1850586	1.6874974
2.1875	1.8053924
2.1899414	1.9645046
2.1923828	2.1573815
2.1948242	2.3784468
2.1972656	2.623141
2.199707	2.8875008
2.2021484	3.167507
2.2045898	3.4583645
2.2070312	3.7540162
2.2094727	4.047232
2.211914	4.330966
2.2143555	4.6001606
2.2167969	4.8525105
2.2192383	5.0878005
2.2216797	5.3064876
2.224121	5.5092535
2.2265625	5.6978416
2.229004	5.8759055
2.2314453	6.047871
2.2338867	6.217136
2.2363281	6.384878
2.2387695	6.5516214
2.241211	6.718524
2.2436523	6.8868265
2.2460938	7.0550895
2.2485352	7.217717
2.2509766	7.3673115
2.253418	7.4985604
2.2558594	7.610331
2.2583008	7.704151
2.2607422	7.781257
2.2631836	7.8416123
2.265625	7.8844137
2.2680664	7.907557
2.2705078	7.9053
2.2729492	7.8660307
2.2753906	7.7736454
2.277832	7.6129017
2.2802734	7.3745494
2.2827148	7.0579586
2.2851562	6.6704936
2.2875977	6.226652
2.290039	5.74845
2.2924805	5.266437
2.2949219	4.819321
2.2973633	4.4503417
2.2998047	4.199251
2.302246	4.0909834
2.3046875	4.1259575
2.307129	4.2804737
2.3095703	4.5180984
2.3120117	4.8033323
2.3144531	5.1087523
2.3168945	5.4158263
2.319336	5.712543
2.3217773	5.991671
2.3242188	6.2495904
2.3266602	6.485232
2.3291016	6.698237
2.331543	6.8873477
2.3339844	7.0507827
2.3364258	7.1882076
2.3388672	7.3026376
2.3413086	7.3999724
2.34375	7.486461
2.3461914	7.566247
2.3486328	7.6406436
2.3510742	7.7091255
2.3535156	7.769397
2.355957	7.816168
2.3583984	7.840142
2.3608398	7.8296742
2.3632812	7.774411
2.3657227	7.668553
2.368164	7.5115533
2.3706055	7.306457
2.3730469	7.058645
2.3754883	6.775394
2.3779297	6.466256
2.380371	6.142074
2.3828125	5.812949
2.385254	5.486151
2.3876953	5.165988
2.3901367	4.8549757
2.3925781	4.555352
2.3950195	4.2693787
2.397461	3.9988368
2.3999023	3.7446346
2.4023438	3.5077024
2.4047852	3.2902088
2.4072266	3.0961564
2.409668	2.9305756
2.4121094	2.7985988
2.4145508	2.7045252
2.4169922	2.6516397
2.4194336	2.6418948
2.421875	2.6749823
2.4243164	2.7473695
2.4267578	2.8517401
2.4291992	2.9777944
2.4316406	3.1139648
2.434082	3.2490048
2.4365234	3.3730576
2.4389648	3.4780047
2.4414062	3.5580442
2.4438477	3.6103737
2.446289	3.6356025
2.4487305	3.6371334
2.4511719	3.6198306
