
X-Axis: Frequency (hz)
Y-Axis: Fourier Amplitude (cm/s)
Number of Data Sets: 4


DATASET #1

Name: FAS H1 (cm/s)
Num Points: 2044
Info: 

X, Y Data:
0.009765625	0.040834446
0.012207031	0.06595529
0.014648438	0.09584509
0.017089844	0.13945737
0.01953125	0.20742223
0.021972656	0.30067572
0.024414062	0.41371903
0.026855469	0.54533005
0.029296875	0.7048086
0.03173828	0.9058987
0.034179688	1.1532261
0.036621094	1.438002
0.0390625	1.7472448
0.041503906	2.0753732
0.043945312	2.4257748
0.04638672	2.8022907
0.048828125	3.199102
0.05126953	3.599346
0.053710938	3.9849083
0.056152344	4.3461003
0.05859375	4.6837015
0.061035156	5.002679
0.06347656	5.3040075
0.06591797	5.582937
0.068359375	5.8322535
0.07080078	6.0473495
0.07324219	6.2288775
0.075683594	6.3807144
0.078125	6.5067782
0.080566406	6.607488
0.08300781	6.678008
0.08544922	6.7089176
0.087890625	6.688209
0.09033203	6.606185
0.09277344	6.460274
0.095214844	6.255588
0.09765625	6.001081
0.10009766	5.7025847
0.10253906	5.358371
0.10498047	4.9622493
0.10742188	4.5119567
0.10986328	4.0170326
0.11230469	3.4999447
0.11474609	2.9880524
0.1171875	2.5018857
0.11962891	2.0473254
0.12207031	1.617376
0.12451172	1.203811
0.12695312	0.8092787
0.12939453	0.45328668
0.13183594	0.19915879
0.13427734	0.25800183
0.13671875	0.46260062
0.13916016	0.6875861
0.14160156	0.95065033
0.14404297	1.2749021
0.14648438	1.6750536
0.14892578	2.1543672
0.15136719	2.6964474
0.1538086	3.2573774
0.15625	3.7701907
0.1586914	4.1630683
0.16113281	4.3817163
0.16357422	4.406788
0.16601562	4.258251
0.16845703	3.983522
0.17089844	3.6385307
0.17333984	3.2749813
0.17578125	2.9386315
0.17822266	2.6704955
0.18066406	2.4984863
0.18310547	2.4251971
0.18554688	2.4338355
0.18798828	2.5070393
0.19042969	2.6257627
0.1928711	2.7475505
0.1953125	2.8021297
0.1977539	2.7277389
0.20019531	2.5439231
0.20263672	2.4379761
0.20507812	2.7175555
0.20751953	3.452834
0.20996094	4.3954663
0.21240234	5.2615314
0.21484375	5.8373504
0.21728516	5.983388
0.21972656	5.6378813
0.22216797	4.834784
0.22460938	3.7511983
0.22705078	2.8393087
0.22949219	2.8551037
0.2319336	3.7706878
0.234375	4.811134
0.2368164	5.5147653
0.23925781	5.6937423
0.24169922	5.315129
0.24414062	4.4606085
0.24658203	3.3211517
0.24902344	2.284704
0.25146484	2.115842
0.25390625	2.9268513
0.25634766	3.893989
0.25878906	4.5612836
0.26123047	4.739532
0.26367188	4.368781
0.26611328	3.493383
0.2685547	2.2458417
0.2709961	0.82761234
0.2734375	0.74495757
0.2758789	2.0532541
0.2783203	3.1917465
0.28076172	4.0936046
0.28320312	4.700834
0.28564453	4.9120097
0.28808594	4.5974207
0.29052734	3.6625347
0.29296875	2.1425333
0.29541016	0.81329197
0.29785156	2.4991128
0.30029297	4.5180984
0.30273438	5.988655
0.30517578	6.5655046
0.3076172	6.0904264
0.3100586	4.6129932
0.3125	2.384366
0.3149414	0.44507644
0.3173828	2.8154285
0.31982422	4.833341
0.32226562	6.0378437
0.32470703	6.273665
0.32714844	5.564564
0.32958984	4.0760098
0.33203125	2.0545278
0.33447266	0.23563106
0.33691406	2.4887729
0.33935547	4.4273677
0.34179688	5.71509
0.34423828	6.033583
0.3466797	5.1793647
0.3491211	3.1895728
0.3515625	0.47673053
0.3540039	2.5567563
0.3564453	4.888686
0.35888672	5.9760847
0.36132812	5.493145
0.36376953	3.5704157
0.36621094	0.92412305
0.36865234	2.4314404
0.37109375	4.650989
0.37353516	5.544663
0.37597656	4.827235
0.37841797	2.7559462
0.38085938	1.1698254
0.38330078	3.4364357
0.3857422	5.1852136
0.3881836	5.4201884
0.390625	4.1949925
0.3930664	2.6931202
0.3955078	3.4242857
0.39794922	5.032736
0.40039062	5.531338
0.40283203	4.5216703
0.40527344	2.6589944
0.40771484	2.48851
0.41015625	4.1485105
0.41259766	5.001517
0.41503906	4.4655886
0.41748047	2.9691412
0.41992188	2.1477408
0.42236328	3.308741
0.4248047	4.4948335
0.4272461	4.8416
0.4296875	4.3209457
0.4321289	3.312129
0.4345703	2.6555576
0.43701172	3.013643
0.43945312	3.521129
0.44189453	3.259217
0.44433594	2.0334048
0.44677734	0.2666782
0.44921875	1.2927924
0.45166016	1.9027892
0.45410156	1.7367288
0.45654297	2.6432202
0.45898438	4.5245543
0.46142578	5.85589
0.4638672	6.1160274
0.4663086	5.9207716
0.46875	6.354532
0.4711914	7.1605906
0.4736328	7.2132125
0.47607422	6.2452006
0.47851562	5.251857
0.48095703	5.281138
0.48339844	5.481575
0.48583984	4.74704
0.48828125	3.153765
0.49072266	1.5988995
0.49316406	0.9897829
0.49560547	0.71243286
0.49804688	0.75096166
0.5004883	1.4143759
0.5029297	1.6564454
0.5053711	1.3886496
0.5078125	1.5106523
0.5102539	2.1586788
0.5126953	2.4320085
0.5151367	2.111625
0.5175781	1.5877683
0.52001953	1.383073
0.52246094	1.3886337
0.52490234	1.2056866
0.52734375	0.761374
0.52978516	0.66834587
0.53222656	1.3281744
0.53466797	1.8806847
0.5371094	2.2421582
0.5395508	2.8092916
0.5419922	3.707733
0.5444336	4.699134
0.546875	5.6680517
0.5493164	6.550814
0.5517578	7.1845465
0.5541992	7.451562
0.5566406	7.3897257
0.55908203	7.1193495
0.56152344	6.7832193
0.56396484	6.4664154
0.56640625	6.0544567
0.56884766	5.426476
0.57128906	4.844014
0.57373047	4.7654757
0.5761719	5.223131
0.5786133	6.020253
0.5810547	6.971698
0.5834961	7.7383404
0.5859375	8.16954
0.5883789	8.472735
0.5908203	8.726479
0.5932617	8.7504015
0.5957031	8.521147
0.59814453	8.14147
0.60058594	7.6099963
0.60302734	7.0051556
0.60546875	6.4825106
0.60791016	5.9374313
0.61035156	5.1583023
0.61279297	4.12214
0.6152344	2.8578973
0.6176758	1.4851482
0.6201172	1.3165734
0.6225586	2.7830193
0.625	4.4625664
0.6274414	6.069609
0.6298828	7.353565
0.6323242	8.146556
0.6347656	8.392405
0.63720703	8.028108
0.63964844	7.053387
0.64208984	5.616908
0.64453125	3.9914715
0.64697266	2.9539263
0.64941406	3.780153
0.65185547	5.635194
0.6542969	7.440371
0.6567383	8.828312
0.6591797	9.652052
0.6616211	9.914129
0.6640625	9.698522
0.6665039	9.0478735
0.6689453	8.007864
0.6713867	6.7142725
0.6738281	5.423941
0.67626953	4.562754
0.67871094	4.524843
0.68115234	5.1775775
0.68359375	6.1258245
0.68603516	7.1645174
0.68847656	8.246781
0.69091797	9.380177
0.6933594	10.514785
0.6958008	11.518353
0.6982422	12.22566
0.7006836	12.471697
0.703125	12.160144
0.7055664	11.302636
0.7080078	9.999077
0.7104492	8.446743
0.7128906	6.9833417
0.71533203	6.143573
0.71777344	6.4016128
0.72021484	7.4947786
0.72265625	8.676764
0.72509766	9.354727
0.72753906	9.201249
0.72998047	8.123371
0.7324219	6.218774
0.7348633	3.7347465
0.7373047	1.4825277
0.7397461	3.03727
0.7421875	5.8893895
0.7446289	8.502512
0.7470703	10.552504
0.7495117	11.836206
0.7519531	12.228446
0.75439453	11.701079
0.75683594	10.358351
0.75927734	8.46665
0.76171875	6.564212
0.76416016	5.5892806
0.76660156	6.174953
0.76904297	7.598768
0.7714844	8.927823
0.7739258	9.767693
0.7763672	10.089945
0.7788086	10.051456
0.78125	9.907008
0.7836914	9.889467
0.7861328	10.122442
0.7885742	10.552176
0.7910156	10.970399
0.79345703	11.171471
0.79589844	11.029259
0.79833984	10.538469
0.80078125	9.78342
0.80322266	8.855544
0.80566406	7.8368373
0.80810547	6.755209
0.8105469	5.5970035
0.8129883	4.355649
0.8154297	3.0315685
0.8178711	1.6685786
0.8203125	0.46707827
0.8227539	1.1776735
0.8251953	2.377475
0.8276367	3.4333868
0.8300781	4.2559566
0.83251953	4.7841864
0.83496094	5.059087
0.83740234	5.279977
0.83984375	5.7802444
0.84228516	6.808053
0.84472656	8.279074
0.84716797	9.897616
0.8496094	11.336753
0.8520508	12.331367
0.8544922	12.725532
0.8569336	12.49035
0.859375	11.75913
0.8618164	10.826049
0.8642578	10.091233
0.8666992	9.883227
0.8691406	10.202155
0.87158203	10.718224
0.87402344	11.026896
0.87646484	10.87612
0.87890625	10.248007
0.88134766	9.349469
0.88378906	8.516896
0.88623047	7.991141
0.8886719	7.7038198
0.8911133	7.329373
0.8935547	6.5624676
0.8959961	5.297009
0.8984375	3.6720135
0.9008789	2.2071273
0.9033203	2.1878202
0.9057617	3.4220603
0.9082031	4.66326
0.91064453	5.6126347
0.91308594	6.3095946
0.91552734	6.891496
0.91796875	7.440909
0.92041016	7.895314
0.92285156	8.110614
0.92529297	7.969681
0.9277344	7.4764204
0.9301758	6.7474823
0.9326172	5.9035916
0.9350586	4.9591217
0.9375	3.808071
0.9399414	2.645338
0.9423828	3.0999913
0.9448242	5.7291703
0.9472656	9.142469
0.94970703	12.627582
0.95214844	15.7721
0.95458984	18.324951
0.95703125	20.19736
0.95947266	21.406624
0.96191406	21.990744
0.96435547	21.946445
0.9667969	21.197105
0.9692383	19.657852
0.9716797	17.330833
0.9741211	14.357512
0.9765625	11.040008
0.9790039	7.810086
0.9814453	5.21234
0.9838867	3.897271
0.9863281	3.9545727
0.98876953	4.4954615
0.99121094	4.9161034
0.99365234	5.076369
0.99609375	4.9617796
0.99853516	4.546517
1.0009766	3.8160028
1.003418	2.8292828
1.0058594	1.7909973
1.0083008	1.294568
1.0107422	1.8114158
1.0131836	2.547532
1.015625	3.0867524
1.0180664	3.401199
1.0205078	3.6209033
1.0229492	3.9421597
1.0253906	4.535976
1.027832	5.477681
1.0302734	6.755882
1.0327148	8.320131
1.0351562	10.092953
1.0375977	11.962166
1.0400391	13.796301
1.0424805	15.459228
1.0449219	16.834852
1.0473633	17.867355
1.0498047	18.568909
1.0522461	19.004293
1.0546875	19.249224
1.0571289	19.338444
1.0595703	19.272118
1.0620117	19.059698
1.0644531	18.774466
1.0668945	18.54539
1.0693359	18.434782
1.0717773	18.339989
1.0742188	18.013971
1.0766602	17.226019
1.0791016	15.946785
1.081543	14.402927
1.0839844	13.010592
1.0864258	12.142891
1.0888672	11.865062
1.0913086	11.952337
1.09375	12.137566
1.0961914	12.283788
1.0986328	12.341209
1.1010742	12.258233
1.1035156	11.984701
1.105957	11.517097
1.1083984	10.939492
1.1108398	10.406317
1.1132812	10.056457
1.1157227	9.939478
1.1181641	10.015129
1.1206055	10.197397
1.1230469	10.386991
1.1254883	10.476091
1.1279297	10.34717
1.1303711	9.912975
1.1328125	9.167422
1.1352539	8.1910305
1.1376953	7.1284156
1.1401367	6.127849
1.1425781	5.2754908
1.1450195	4.6011233
1.1474609	4.113222
1.1499023	3.8428328
1.1523438	3.8324804
1.1547852	4.0751214
1.1572266	4.5259833
1.159668	5.135269
1.1621094	5.8786464
1.1645508	6.7571983
1.1669922	7.761715
1.1694336	8.86334
1.171875	10.001276
1.1743164	11.076072
1.1767578	11.978694
1.1791992	12.60799
1.1816406	12.898058
1.184082	12.847412
1.1865234	12.518904
1.1889648	12.043041
1.1914062	11.593228
1.1938477	11.341194
1.1962891	11.42153
1.1987305	11.871872
1.2011719	12.615454
1.2036133	13.482428
1.2060547	14.251374
1.2084961	14.730692
1.2109375	14.804827
1.2133789	14.460214
1.2158203	13.794893
1.2182617	12.972961
1.2207031	12.175541
1.2231445	11.537188
1.2255859	11.097541
1.2280273	10.834036
1.2304688	10.691402
1.2329102	10.61085
1.2353516	10.523182
1.237793	10.312451
1.2402344	9.863125
1.2426758	9.09243
1.2451172	7.9896755
1.2475586	6.6583147
1.25	5.2731123
1.2524414	4.090576
1.2548828	3.440662
1.2573242	3.5385904
1.2597656	4.2686424
1.262207	5.343629
1.2646484	6.6013513
1.2670898	7.9501762
1.2695312	9.316943
1.2719727	10.689048
1.2744141	12.073794
1.2768555	13.519654
1.2792969	15.063614
1.2817383	16.642916
1.2841797	18.162756
1.2866211	19.504053
1.2890625	20.60039
1.2915039	21.483461
1.2939453	22.189507
1.2963867	22.767757
1.2988281	23.226786
1.3012695	23.55223
1.3037109	23.777632
1.3061523	23.925444
1.3085938	24.023129
1.3110352	24.04782
1.3134766	23.928354
1.315918	23.633423
1.3183594	23.153334
1.3208008	22.53367
1.3232422	21.814
1.3256836	20.970402
1.328125	19.95499
1.3305664	18.695976
1.3330078	17.168615
1.3354492	15.413641
1.3378906	13.513255
1.340332	11.599228
1.3427734	9.814404
1.3452148	8.297166
1.3476562	7.166103
1.3500977	6.4680777
1.3525391	6.1668944
1.3549805	6.172151
1.3574219	6.379725
1.3598633	6.714493
1.3623047	7.130168
1.3647461	7.5853596
1.3671875	8.055554
1.3696289	8.517328
1.3720703	8.94315
1.3745117	9.323182
1.3769531	9.629712
1.3793945	9.824705
1.3818359	9.853229
1.3842773	9.63192
1.3867188	9.116515
1.3891602	8.302165
1.3916016	7.2499733
1.394043	6.1182346
1.3964844	5.1558294
1.3989258	4.760104
1.4013672	5.2050405
1.4038086	6.3133574
1.40625	7.6859074
1.4086914	9.001245
1.4111328	10.096599
1.4135742	10.907069
1.4160156	11.472587
1.418457	11.897953
1.4208984	12.286985
1.4233398	12.729447
1.4257812	13.238791
1.4282227	13.767937
1.4306641	14.231077
1.4331055	14.506569
1.4355469	14.505435
1.4379883	14.172202
1.4404297	13.510978
1.4428711	12.610102
1.4453125	11.595134
1.4477539	10.639863
1.4501953	9.901343
1.4526367	9.4599285
1.4550781	9.331518
1.4575195	9.448009
1.4599609	9.749933
1.4624023	10.19416
1.4648438	10.749733
1.4672852	11.419583
1.4697266	12.186513
1.472168	13.041562
1.4746094	13.950568
1.4770508	14.840966
1.4794922	15.642005
1.4819336	16.264477
1.484375	16.652866
1.4868164	16.788033
1.4892578	16.664343
1.4916992	16.320929
1.4941406	15.803803
1.496582	15.177154
1.4990234	14.530099
1.5014648	13.93081
1.5039062	13.440452
1.5063477	13.079488
1.5087891	12.832761
1.5112305	12.682341
1.5136719	12.596539
1.5161133	12.560177
1.5185547	12.557571
1.5209961	12.570227
1.5234375	12.584328
1.5258789	12.576255
1.5283203	12.536214
1.5307617	12.459272
1.5332031	12.353266
1.5356445	12.238515
1.5380859	12.129189
1.5405273	12.038854
1.5429688	11.960032
1.5454102	11.879697
1.5478516	11.784769
1.550293	11.662005
1.5527344	11.524231
1.5551758	11.385018
1.5576172	11.261886
1.5600586	11.175541
1.5625	11.119904
1.5649414	11.084861
1.5673828	11.044612
1.5698242	10.955991
1.5722656	10.785955
1.574707	10.495855
1.5771484	10.063688
1.5795898	9.489881
1.5820312	8.779997
1.5844727	7.963184
1.5869141	7.064708
1.5893555	6.110672
1.5917969	5.1459045
1.5942383	4.230361
1.5966797	3.4829175
1.5991211	3.0564938
1.6015625	3.0444322
1.6040039	3.357132
1.6064453	3.8037157
1.6088867	4.256824
1.6113281	4.6530848
1.6137695	4.983603
1.6162109	5.267943
1.6186523	5.530467
1.6210938	5.7960014
1.6235352	6.0687943
1.6259766	6.3278804
1.628418	6.5377135
1.6308594	6.6561084
1.6333008	6.644945
1.6357422	6.4868793
1.6381836	6.1840816
1.640625	5.7544975
1.6430664	5.2392282
1.6455078	4.6832886
1.6479492	4.142876
1.6503906	3.6838114
1.652832	3.362769
1.6552734	3.2336857
1.6577148	3.2937896
1.6601562	3.500651
1.6625977	3.781628
1.6650391	4.0612335
1.6674805	4.2922215
1.6699219	4.426818
1.6723633	4.453274
1.6748047	4.3709183
1.6772461	4.197776
1.6796875	3.9836633
1.6821289	3.772826
1.6845703	3.631226
1.6870117	3.600839
1.6894531	3.6971433
1.6918945	3.924924
1.6943359	4.253871
1.6967773	4.6702905
1.6992188	5.150644
1.7016602	5.6610365
1.7041016	6.1767244
1.706543	6.6454725
1.7089844	7.024412
1.7114258	7.278631
1.7138672	7.3814783
1.7163086	7.3641667
1.71875	7.293118
1.7211914	7.2851706
1.7236328	7.464632
1.7260742	7.869095
1.7285156	8.442761
1.730957	9.036511
1.7333984	9.490624
1.7358398	9.683714
1.7382812	9.546383
1.7407227	9.094972
1.7431641	8.417707
1.7456055	7.690278
1.7480469	7.1609645
1.7504883	7.0545497
1.7529297	7.443028
1.7553711	8.182057
1.7578125	9.037059
1.7602539	9.80983
1.7626953	10.366494
1.7651367	10.644089
1.7675781	10.635995
1.7700195	10.375596
1.7724609	9.942333
1.7749023	9.435975
1.7773438	8.96261
1.7797852	8.619512
1.7822266	8.443304
1.784668	8.415808
1.7871094	8.454401
1.7895508	8.445781
1.7919922	8.29236
1.7944336	7.9062223
1.796875	7.2558746
1.7993164	6.3508587
1.8017578	5.254771
1.8041992	4.1285853
1.8066406	3.2512214
1.809082	3.0646405
1.8115234	3.6570964
1.8139648	4.632171
1.8164062	5.6441197
1.8188477	6.523483
1.8212891	7.215278
1.8237305	7.6913805
1.8261719	7.9944324
1.8286133	8.180429
1.8310547	8.327206
1.8334961	8.527169
1.8359375	8.808181
1.8383789	9.177925
1.8408203	9.563668
1.8432617	9.876405
1.8457031	10.046074
1.8481445	10.020332
1.8505859	9.856573
1.8530273	9.664722
1.8554688	9.638644
1.8579102	9.958104
1.8603516	10.6677
1.862793	11.687008
1.8652344	12.811612
1.8676758	13.863194
1.8701172	14.686182
1.8725586	15.180965
1.875	15.315441
1.8774414	15.076241
1.8798828	14.523741
1.8823242	13.74157
1.8847656	12.850745
1.887207	12.008496
1.8896484	11.331096
1.8920898	10.891791
1.8945312	10.659603
1.8969727	10.537742
1.8994141	10.416924
1.9018555	10.206038
1.9042969	9.8719845
1.9067383	9.414675
1.9091797	8.866873
1.9116211	8.281018
1.9140625	7.717191
1.9165039	7.2412505
1.9189453	6.9163523
1.9213867	6.7889833
1.9238281	6.870733
1.9262695	7.1447945
1.9287109	7.5641565
1.9311523	8.069844
1.9335938	8.609981
1.9360352	9.119634
1.9384766	9.551568
1.940918	9.867112
1.9433594	10.029998
1.9458008	10.047973
1.9482422	9.930556
1.9506836	9.721589
1.953125	9.487346
1.9555664	9.2668495
1.9580078	9.110974
1.9604492	9.014834
1.9628906	8.955574
1.965332	8.907207
1.9677734	8.8186035
1.9702148	8.691438
1.9726562	8.518328
1.9750977	8.310326
1.9775391	8.106466
1.9799805	7.907832
1.9824219	7.7421336
1.9848633	7.61306
1.9873047	7.500418
1.9897461	7.4067717
1.9921875	7.290041
1.9946289	7.1260242
1.9970703	6.8997116
1.9995117	6.5753956
2.0019531	6.174424
2.0043945	5.7159057
2.006836	5.2520556
2.0092773	4.8703465
2.0117188	4.609613
2.0141602	4.49797
2.0166016	4.469033
2.019043	4.439332
2.0214844	4.3528438
2.0239258	4.1770067
2.0263672	3.9816952
2.0288086	3.8530593
2.03125	3.9095047
2.0336914	4.193552
2.0361328	4.6411123
2.0385742	5.1666355
2.0410156	5.659265
2.043457	6.0777993
2.0458984	6.389262
2.0483398	6.589709
2.0507812	6.7037916
2.0532227	6.7276454
2.055664	6.6878386
2.0581055	6.578067
2.0605469	6.3887696
2.0629883	6.1216364
2.0654297	5.748414
2.067871	5.276194
2.0703125	4.6994996
2.072754	4.0267262
2.0751953	3.293387
2.0776367	2.5216033
2.0800781	1.7820343
2.0825195	1.1808372
2.084961	0.9721553
2.0874023	1.2640756
2.0898438	1.7432368
2.0922852	2.2333953
2.0947266	2.6718218
2.097168	3.048841
2.0996094	3.3427002
2.1020508	3.546346
2.1044922	3.65045
2.1069336	3.6409247
2.109375	3.5276914
2.1118164	3.3141754
2.1142578	3.0241086
2.1166992	2.6981065
2.1191406	2.3836963
2.121582	2.1641386
2.1240234	2.1080284
2.1264648	2.245224
2.1289062	2.5366979
2.1313477	2.9134548
2.133789	3.3267517
2.1362305	3.7377656
2.1386719	4.132141
2.1411133	4.49345
2.1435547	4.8128057
2.145996	5.0879564
2.1484375	5.311778
2.150879	5.492915
2.1533203	5.6340737
2.1557617	5.745064
2.1582031	5.840258
2.1606445	5.9287558
2.163086	6.031272
2.1655273	6.1589036
2.1679688	6.3213363
2.1704102	6.5149074
2.1728516	6.7225623
2.175293	6.9256134
2.1777344	7.0935717
2.1801758	7.206701
2.1826172	7.2467613
2.1850586	7.205527
2.1875	7.092654
2.1899414	6.9234085
2.1923828	6.7341795
2.1948242	6.5612116
2.1972656	6.4386578
2.199707	6.3868465
2.2021484	6.40194
2.2045898	6.4718323
2.2070312	6.564966
2.2094727	6.6601253
2.211914	6.733373
2.2143555	6.7654805
2.2167969	6.75053
2.2192383	6.6736045
2.2216797	6.5402956
2.224121	6.350908
2.2265625	6.1118045
2.229004	5.8376217
2.2314453	5.5317397
2.2338867	5.210844
2.2363281	4.874781
2.2387695	4.5275564
2.241211	4.170062
2.2436523	3.7922816
2.2460938	3.3999612
2.2485352	2.9876328
2.2509766	2.567194
2.253418	2.1494765
2.2558594	1.7400818
2.2583008	1.3573415
2.2607422	1.0028487
2.2631836	0.7010101
2.265625	0.4932762
2.2680664	0.45736367
2.2705078	0.57899165
2.2729492	0.7548476
2.2753906	0.9382839
2.277832	1.1060714
2.2802734	1.2601218
2.2827148	1.3891605
2.2851562	1.4944674
2.2875977	1.5796331
2.290039	1.6455145
2.2924805	1.7105045
2.2949219	1.7786529
2.2973633	1.8627608
2.2998047	1.968249
2.302246	2.0910828
2.3046875	2.234054
2.307129	2.378698
2.3095703	2.5166135
2.3120117	2.6299226
2.3144531	2.7003045
2.3168945	2.7230191
2.319336	2.6858976
2.3217773	2.5995703
2.3242188	2.477544
2.3266602	2.350011
2.3291016	2.2679129
2.331543	2.274224
2.3339844	2.4063709
2.3364258	2.6506853
2.3388672	2.9718876
2.3413086	3.3232749
2.34375	3.6610105
2.3461914	3.9589396
2.3486328	4.194021
2.3510742	4.3576555
2.3535156	4.44768
2.355957	4.466897
2.3583984	4.424304
2.3608398	4.3328056
2.3632812	4.2031837
2.3657227	4.047673
2.368164	3.8742557
2.3706055	3.6810105
2.3730469	3.4695804
2.3754883	3.2300098
2.3779297	2.9610326
2.380371	2.6618805
2.3828125	2.3298323
2.385254	1.9783844
2.3876953	1.608936
2.3901367	1.23898
2.3925781	0.88377756
2.3950195	0.5585076
2.397461	0.32945952
2.3999023	0.35184708
2.4023438	0.575889
2.4047852	0.8657799
2.4072266	1.1901383
2.409668	1.5439854
2.4121094	1.933851
2.4145508	2.3350384
2.4169922	2.7416534
2.4194336	3.1282723
2.421875	3.4690554
2.4243164	3.7582307
2.4267578	3.9685862
2.4291992	4.1046505
2.4316406	4.1651196
2.434082	4.149215
2.4365234	4.0825357
2.4389648	3.9674747
2.4414062	3.8305604
2.4438477	3.6895497
2.446289	3.5513573
2.4487305	3.4365315
2.4511719	3.335528
2.4536133	3.2540245
