
X-Axis: Frequency (hz)
Y-Axis: Fourier Amplitude (cm/s)
Number of Data Sets: 4


DATASET #1

Name: FAS H1 (cm/s)
Num Points: 2044
Info: 

X, Y Data:
0.009765625	0.12399275
0.012207031	0.1888465
0.014648438	0.2738179
0.017089844	0.38228127
0.01953125	0.5156792
0.021972656	0.6732494
0.024414062	0.8539483
0.026855469	1.0580679
0.029296875	1.2851176
0.03173828	1.5294286
0.034179688	1.7785763
0.036621094	2.0174305
0.0390625	2.234398
0.041503906	2.4231558
0.043945312	2.5777647
0.04638672	2.6869683
0.048828125	2.7358565
0.05126953	2.714953
0.053710938	2.6276736
0.056152344	2.4875982
0.05859375	2.3074703
0.061035156	2.0924108
0.06347656	1.8476256
0.06591797	1.5958066
0.068359375	1.3879224
0.07080078	1.2894293
0.07324219	1.3367351
0.075683594	1.5163411
0.078125	1.8003906
0.080566406	2.1680906
0.08300781	2.596111
0.08544922	3.0567322
0.087890625	3.529674
0.09033203	4.0106344
0.09277344	4.5058365
0.095214844	5.016875
0.09765625	5.5313096
0.10009766	6.028447
0.10253906	6.493876
0.10498047	6.927603
0.10742188	7.338294
0.10986328	7.730515
0.11230469	8.0990925
0.11474609	8.436614
0.1171875	8.746524
0.11962891	9.048793
0.12207031	9.372981
0.12451172	9.743257
0.12695312	10.166512
0.12939453	10.631186
0.13183594	11.116483
0.13427734	11.604365
0.13671875	12.085639
0.13916016	12.556026
0.14160156	13.004835
0.14404297	13.404976
0.14648438	13.712832
0.14892578	13.880174
0.15136719	13.871197
0.1538086	13.674791
0.15625	13.306435
0.1586914	12.802817
0.16113281	12.218329
0.16357422	11.63222
0.16601562	11.162547
0.16845703	10.963325
0.17089844	11.173945
0.17333984	11.834375
0.17578125	12.84571
0.17822266	14.015127
0.18066406	15.125728
0.18310547	15.976993
0.18554688	16.402317
0.18798828	16.288603
0.19042969	15.609447
0.1928711	14.467458
0.1953125	13.134837
0.1977539	12.065493
0.20019531	11.783103
0.20263672	12.551636
0.20507812	14.141508
0.20751953	16.040298
0.20996094	17.74353
0.21240234	18.859781
0.21484375	19.13636
0.21728516	18.486954
0.21972656	17.029552
0.22216797	15.129161
0.22460938	13.426184
0.22705078	12.706299
0.22949219	13.363585
0.2319336	14.967098
0.234375	16.693865
0.2368164	17.861088
0.23925781	18.063848
0.24169922	17.17612
0.24414062	15.359612
0.24658203	13.099117
0.24902344	11.232745
0.25146484	10.691432
0.25390625	11.604239
0.25634766	13.078625
0.25878906	14.151196
0.26123047	14.247952
0.26367188	13.17645
0.26611328	11.136859
0.2685547	8.90848
0.2709961	8.097684
0.2734375	9.714084
0.2758789	12.41469
0.2783203	14.633416
0.28076172	15.536656
0.28320312	14.834971
0.28564453	12.685133
0.28808594	9.697301
0.29052734	7.129327
0.29296875	6.8438125
0.29541016	8.70964
0.29785156	10.798137
0.30029297	12.081466
0.30273438	12.271543
0.30517578	11.459473
0.3076172	9.9909115
0.3100586	8.406309
0.3125	7.3183875
0.3149414	7.035052
0.3173828	7.226126
0.31982422	7.3123384
0.32226562	6.980058
0.32470703	6.3272314
0.32714844	5.839229
0.32958984	6.025921
0.33203125	6.7200513
0.33447266	7.2171693
0.33691406	6.947164
0.33935547	5.716795
0.34179688	3.6983929
0.34423828	1.3982985
0.3466797	1.4225277
0.3491211	3.1790407
0.3515625	4.3556676
0.3540039	4.847174
0.3564453	4.725461
0.35888672	4.0885634
0.36132812	3.0649946
0.36376953	2.0723953
0.36621094	2.4124374
0.36865234	4.1092067
0.37109375	6.0153127
0.37353516	7.5304694
0.37597656	8.277171
0.37841797	8.128962
0.38085938	7.4165554
0.38330078	7.112724
0.3857422	8.198208
0.3881836	10.315709
0.390625	12.408781
0.3930664	13.74225
0.3955078	14.039725
0.39794922	13.424129
0.40039062	12.313639
0.40283203	11.22771
0.40527344	10.50895
0.40771484	10.135969
0.41015625	9.819206
0.41259766	9.22479
0.41503906	8.100431
0.41748047	6.342158
0.41992188	4.0937157
0.42236328	2.1123977
0.4248047	2.655224
0.4272461	4.4358306
0.4296875	5.8461585
0.4321289	6.9191957
0.4345703	8.082553
0.43701172	9.4406185
0.43945312	10.507398
0.44189453	10.664247
0.44433594	9.711066
0.44677734	8.165409
0.44921875	7.1099534
0.45166016	6.9800916
0.45410156	6.712849
0.45654297	5.2247834
0.45898438	2.7001083
0.46142578	3.6090589
0.4638672	7.7138753
0.4663086	11.425831
0.46875	13.882798
0.4711914	15.121757
0.4736328	15.956877
0.47607422	17.347305
0.47851562	19.329582
0.48095703	20.98005
0.48339844	21.395979
0.48583984	20.357368
0.48828125	18.355083
0.49072266	16.16932
0.49316406	14.249463
0.49560547	12.436382
0.49804688	10.360932
0.5004883	7.9739485
0.5029297	5.707401
0.5053711	4.363847
0.5078125	4.4360123
0.5102539	5.39326
0.5126953	6.848074
0.5151367	8.80754
0.5175781	11.08286
0.52001953	13.230625
0.52246094	14.826079
0.52490234	15.679674
0.52734375	15.901751
0.52978516	15.820276
0.53222656	15.773935
0.53466797	15.868245
0.5371094	15.883688
0.5395508	15.429484
0.5419922	14.188598
0.5444336	12.071601
0.546875	9.2314205
0.5493164	5.99788
0.5517578	3.0316896
0.5541992	3.14478
0.5566406	6.2858124
0.55908203	9.839544
0.56152344	13.249706
0.56396484	16.209536
0.56640625	18.468733
0.56884766	19.851679
0.57128906	20.249899
0.57373047	19.597256
0.5761719	17.885424
0.5786133	15.24398
0.5810547	12.070883
0.5834961	9.217878
0.5859375	8.073043
0.5883789	9.285022
0.5908203	11.722231
0.5932617	14.348811
0.5957031	16.740963
0.59814453	18.662062
0.60058594	19.873953
0.60302734	20.177238
0.60546875	19.523724
0.60791016	18.078308
0.61035156	16.182955
0.61279297	14.247514
0.6152344	12.622325
0.6176758	11.49342
0.6201172	10.816414
0.6225586	10.322587
0.625	9.644514
0.6274414	8.516018
0.6298828	6.979981
0.6323242	5.6399574
0.6347656	5.714578
0.63720703	7.5300374
0.63964844	10.124024
0.64208984	12.812613
0.64453125	15.271053
0.64697266	17.260578
0.64941406	18.561823
0.65185547	19.076578
0.6542969	19.01287
0.6567383	19.029644
0.6591797	20.102028
0.6616211	22.899683
0.6640625	27.278109
0.6665039	32.572746
0.6689453	38.093533
0.6713867	43.301804
0.6738281	47.792976
0.67626953	51.24518
0.67871094	53.396564
0.68115234	54.063084
0.68359375	53.18122
0.68603516	50.845516
0.68847656	47.31326
0.69091797	42.963303
0.6933594	38.221
0.6958008	33.476467
0.6982422	29.028538
0.7006836	25.074505
0.703125	21.73772
0.7055664	19.106
0.7080078	17.247955
0.7104492	16.191736
0.7128906	15.875923
0.71533203	16.129805
0.71777344	16.723398
0.72021484	17.4534
0.72265625	18.202375
0.72509766	18.946075
0.72753906	19.721893
0.72998047	20.58321
0.7324219	21.558758
0.7348633	22.63331
0.7373047	23.751104
0.7397461	24.835224
0.7421875	25.809206
0.7446289	26.612547
0.7470703	27.201164
0.7495117	27.534853
0.7519531	27.553318
0.75439453	27.159206
0.75683594	26.226332
0.75927734	24.636799
0.76171875	22.327091
0.76416016	19.315893
0.76660156	15.697485
0.76904297	11.620893
0.7714844	7.3379874
0.7739258	3.894509
0.7763672	5.369987
0.7788086	10.044392
0.78125	15.208927
0.7836914	20.32668
0.7861328	25.200357
0.7885742	29.767237
0.7910156	34.06577
0.79345703	38.196804
0.79589844	42.2795
0.79833984	46.418446
0.80078125	50.689674
0.80322266	55.125134
0.80566406	59.68041
0.80810547	64.19375
0.8105469	68.36881
0.8129883	71.81259
0.8154297	74.11538
0.8178711	74.94081
0.8203125	74.08705
0.8227539	71.50886
0.8251953	67.311226
0.8276367	61.736004
0.8300781	55.15289
0.83251953	48.04942
0.83496094	41.00883
0.83740234	34.66327
0.83984375	29.62363
0.84228516	26.378454
0.84472656	25.17114
0.84716797	25.932798
0.8496094	28.367918
0.8520508	32.09338
0.8544922	36.676006
0.8569336	41.600937
0.859375	46.268223
0.8618164	50.065243
0.8642578	52.499477
0.8666992	53.355297
0.8691406	52.817802
0.87158203	51.512035
0.87402344	50.38339
0.87646484	50.366947
0.87890625	51.92623
0.88134766	54.804787
0.88378906	58.214222
0.88623047	61.22114
0.8886719	63.030766
0.8911133	63.117836
0.8935547	61.27582
0.8959961	57.62323
0.8984375	52.565437
0.9008789	46.711895
0.9033203	40.75745
0.9057617	35.35332
0.9082031	31.005527
0.91064453	28.03201
0.91308594	26.58541
0.91552734	26.687382
0.91796875	28.198069
0.92041016	30.762259
0.92285156	33.841526
0.92529297	36.83428
0.9277344	39.218456
0.9301758	40.67154
0.9326172	41.155155
0.9350586	40.945587
0.9375	40.578182
0.9399414	40.663727
0.9423828	41.588463
0.9448242	43.269146
0.9472656	45.165047
0.94970703	46.518093
0.95214844	46.623646
0.95458984	45.009666
0.95703125	41.519157
0.95947266	36.3113
0.96191406	29.798319
0.96435547	22.539047
0.9667969	15.150148
0.9692383	8.45462
0.9716797	5.4476333
0.9741211	9.566942
0.9765625	15.70091
0.9790039	22.0542
0.9814453	28.21286
0.9838867	33.784924
0.9863281	38.27483
0.98876953	41.14453
0.99121094	41.9176
0.99365234	40.28648
0.99609375	36.19107
0.99853516	29.85698
1.0009766	21.82086
1.003418	13.224738
1.0058594	8.6853895
1.0083008	15.24881
1.0107422	25.922663
1.0131836	37.38587
1.015625	48.9036
1.0180664	60.041214
1.0205078	70.353714
1.0229492	79.372986
1.0253906	86.68553
1.027832	92.03968
1.0302734	95.43304
1.0327148	97.14566
1.0351562	97.703094
1.0375977	97.77038
1.0400391	97.994644
1.0424805	98.84088
1.0449219	100.48209
1.0473633	102.79173
1.0498047	105.42981
1.0522461	107.96277
1.0546875	109.96413
1.0571289	111.07749
1.0595703	111.04581
1.0620117	109.71192
1.0644531	107.00484
1.0668945	102.93462
1.0693359	97.62014
1.0717773	91.35197
1.0742188	84.657814
1.0766602	78.30909
1.0791016	73.214
1.081543	70.18779
1.0839844	69.67997
1.0864258	71.625015
1.0888672	75.5129
1.0913086	80.57562
1.09375	85.951004
1.0961914	90.80307
1.0986328	94.433205
1.1010742	96.383125
1.1035156	96.48834
1.105957	94.85527
1.1083984	91.76135
1.1108398	87.52665
1.1132812	82.421486
1.1157227	76.65173
1.1181641	70.407166
1.1206055	63.914772
1.1230469	57.458607
1.1254883	51.34773
1.1279297	45.870255
1.1303711	41.25099
1.1328125	37.62604
1.1352539	35.024338
1.1376953	33.35114
1.1401367	32.3842
1.1425781	31.80516
1.1450195	31.27225
1.1474609	30.543755
1.1499023	29.62351
1.1523438	28.891666
1.1547852	29.077263
1.1572266	30.903511
1.159668	34.56361
1.1621094	39.630405
1.1645508	45.45311
1.1669922	51.500725
1.1694336	57.440144
1.171875	63.046345
1.1743164	68.08519
1.1767578	72.261635
1.1791992	75.26111
1.1816406	76.85749
1.184082	77.00677
1.1865234	75.86873
1.1889648	73.73303
1.1914062	70.88226
1.1938477	67.4693
1.1962891	63.48722
1.1987305	58.86406
1.2011719	53.630318
1.2036133	48.065876
1.2060547	42.757076
1.2084961	38.51825
1.2109375	36.138527
1.2133789	36.00308
1.2158203	37.88746
1.2182617	41.173294
1.2207031	45.1999
1.2231445	49.42212
1.2255859	53.417583
1.2280273	56.86429
1.2304688	59.538754
1.2329102	61.338078
1.2353516	62.309284
1.237793	62.656593
1.2402344	62.69949
1.2426758	62.768536
1.2451172	63.0744
1.2475586	63.629124
1.25	64.276054
1.2524414	64.808205
1.2548828	65.083015
1.2573242	65.07036
1.2597656	64.81891
1.262207	64.392624
1.2646484	63.82023
1.2670898	63.0882
1.2695312	62.159454
1.2719727	61.001297
1.2744141	59.60303
1.2768555	57.980927
1.2792969	56.172367
1.2817383	54.223362
1.2841797	52.173935
1.2866211	50.05567
1.2890625	47.89691
1.2915039	45.73838
1.2939453	43.642956
1.2963867	41.688107
1.2988281	39.93673
1.3012695	38.395077
1.3037109	36.984142
1.3061523	35.553837
1.3085938	33.946243
1.3110352	32.082424
1.3134766	30.03895
1.315918	28.076658
1.3183594	26.594023
1.3208008	25.984196
1.3232422	26.441635
1.3256836	27.8657
1.328125	29.936186
1.3305664	32.252415
1.3330078	34.40732
1.3354492	36.021976
1.3378906	36.788593
1.340332	36.543808
1.3427734	35.351624
1.3452148	33.58277
1.3476562	31.954235
1.3500977	31.456312
1.3525391	33.005787
1.3549805	36.931355
1.3574219	42.857487
1.3598633	50.07076
1.3623047	57.85452
1.3647461	65.61396
1.3671875	72.90269
1.3696289	79.425835
1.3720703	85.02401
1.3745117	89.64522
1.3769531	93.3081
1.3793945	96.070854
1.3818359	98.01157
1.3842773	99.215195
1.3867188	99.7645
1.3891602	99.72696
1.3916016	99.14531
1.394043	98.0366
1.3964844	96.40272
1.3989258	94.25571
1.4013672	91.633736
1.4038086	88.60913
1.40625	85.27306
1.4086914	81.71604
1.4111328	78.010155
1.4135742	74.20726
1.4160156	70.34836
1.418457	66.467285
1.4208984	62.57928
1.4233398	58.65315
1.4257812	54.59469
1.4282227	50.263004
1.4306641	45.521687
1.4331055	40.28392
1.4355469	34.534557
1.4379883	28.325367
1.4404297	21.805696
1.4428711	15.406106
1.4453125	10.63078
1.4477539	11.09996
1.4501953	16.697311
1.4526367	24.034582
1.4550781	31.712626
1.4575195	39.242825
1.4599609	46.378036
1.4624023	52.9375
1.4648438	58.75932
1.4672852	63.707504
1.4697266	67.69649
1.472168	70.70471
1.4746094	72.76934
1.4770508	73.96567
1.4794922	74.3858
1.4819336	74.13389
1.484375	73.32732
1.4868164	72.10466
1.4892578	70.61641
1.4916992	69.00805
1.4941406	67.39334
1.496582	65.83548
1.4990234	64.342316
1.5014648	62.874268
1.5039062	61.360542
1.5063477	59.717175
1.5087891	57.8548
1.5112305	55.684093
1.5136719	53.116375
1.5161133	50.07411
1.5185547	46.5003
1.5209961	42.37535
1.5234375	37.729137
1.5258789	32.64617
1.5283203	27.265352
1.5307617	21.772196
1.5332031	16.411333
1.5356445	11.575365
1.5380859	8.188608
1.5405273	8.024526
1.5429688	10.999615
1.5454102	15.234706
1.5478516	19.83336
1.550293	24.506176
1.5527344	29.138203
1.5551758	33.65246
1.5576172	37.960457
1.5600586	41.944504
1.5625	45.46847
1.5649414	48.40775
1.5673828	50.676144
1.5698242	52.23898
1.5722656	53.106632
1.574707	53.319103
1.5771484	52.938988
1.5795898	52.054367
1.5820312	50.785355
1.5844727	49.27796
1.5869141	47.682144
1.5893555	46.12113
1.5917969	44.670845
1.5942383	43.360584
1.5966797	42.190052
1.5991211	41.14269
1.6015625	40.191425
1.6040039	39.290615
1.6064453	38.3749
1.6088867	37.37227
1.6113281	36.22793
1.6137695	34.92464
1.6162109	33.486916
1.6186523	31.967484
1.6210938	30.43284
1.6235352	28.95401
1.6259766	27.602755
1.628418	26.449242
1.6308594	25.54645
1.6333008	24.91286
1.6357422	24.52015
1.6381836	24.292152
1.640625	24.11905
1.6430664	23.87756
1.6455078	23.448442
1.6479492	22.735363
1.6503906	21.671347
1.652832	20.227983
1.6552734	18.41661
1.6577148	16.293344
1.6601562	13.957468
1.6625977	11.566356
1.6650391	9.378162
1.6674805	7.878878
1.6699219	7.794397
1.6723633	9.462025
1.6748047	12.481327
1.6772461	16.402538
1.6796875	20.990768
1.6821289	26.122398
1.6845703	31.70826
1.6870117	37.660618
1.6894531	43.883854
1.6918945	50.26929
1.6943359	56.70162
1.6967773	63.06762
1.6992188	69.26357
1.7016602	75.20224
1.7041016	80.81506
1.706543	86.058
1.7089844	90.91206
1.7114258	95.38343
1.7138672	99.49217
1.7163086	103.25804
1.71875	106.68849
1.7211914	109.76564
1.7236328	112.43437
1.7260742	114.59736
1.7285156	116.12021
1.730957	116.85109
1.7333984	116.64388
1.7358398	115.38247
1.7382812	112.99915
1.7407227	109.48803
1.7431641	104.91098
1.7456055	99.393654
1.7480469	93.10865
1.7504883	86.26108
1.7529297	79.07307
1.7553711	71.77991
1.7578125	64.61931
1.7602539	57.824947
1.7626953	51.618492
1.7651367	46.20773
1.7675781	41.775707
1.7700195	38.44618
1.7724609	36.230656
1.7749023	34.998074
1.7773438	34.500034
1.7797852	34.43671
1.7822266	34.517975
1.784668	34.50115
1.7871094	34.202667
1.7895508	33.49715
1.7919922	32.303596
1.7944336	30.578022
1.796875	28.313923
1.7993164	25.552084
1.8017578	22.375954
1.8041992	18.907267
1.8066406	15.291538
1.809082	11.697698
1.8115234	8.329573
1.8139648	5.4826436
1.8164062	3.7563252
1.8188477	3.880586
1.8212891	5.132624
1.8237305	6.5113354
1.8261719	7.6875253
1.8286133	8.595015
1.8310547	9.25071
1.8334961	9.704727
1.8359375	10.018117
1.8383789	10.253737
1.8408203	10.470843
1.8432617	10.719103
1.8457031	11.037225
1.8481445	11.447899
1.8505859	11.958093
1.8530273	12.557967
1.8554688	13.216785
1.8579102	13.882634
1.8603516	14.487266
1.862793	14.957676
1.8652344	15.228239
1.8676758	15.249736
1.8701172	14.992587
1.8725586	14.443336
1.875	13.596108
1.8774414	12.439673
1.8798828	10.951235
1.8823242	9.104752
1.8847656	6.9006357
1.887207	4.4650993
1.8896484	2.7267232
1.8920898	4.3315244
1.8945312	7.8961005
1.8969727	12.034562
1.8994141	16.426228
1.9018555	20.913517
1.9042969	25.374681
1.9067383	29.697182
1.9091797	33.773064
1.9116211	37.50141
1.9140625	40.794735
1.9165039	43.581387
1.9189453	45.8111
1.9213867	47.466805
1.9238281	48.575233
1.9262695	49.205177
1.9287109	49.454693
1.9311523	49.433086
1.9335938	49.246124
1.9360352	48.98214
1.9384766	48.70248
1.940918	48.43579
1.9433594	48.186676
1.9458008	47.947292
1.9482422	47.708256
1.9506836	47.461483
1.953125	47.204792
1.9555664	46.940605
1.9580078	46.673855
1.9604492	46.409763
1.9628906	46.155968
1.965332	45.925
1.9677734	45.729374
1.9702148	45.576763
1.9726562	45.464508
1.9750977	45.384182
1.9775391	45.322617
1.9799805	45.261066
1.9824219	45.17199
1.9848633	45.01857
1.9873047	44.76121
1.9897461	44.359547
1.9921875	43.769245
1.9946289	42.943798
1.9970703	41.83666
1.9995117	40.414215
2.0019531	38.65715
2.0043945	36.56369
2.006836	34.14422
2.0092773	31.423138
2.0117188	28.440247
2.0141602	25.247269
2.0166016	21.897331
2.019043	18.439083
2.0214844	14.915529
2.0239258	11.366529
2.0263672	7.829778
2.0288086	4.3402796
2.03125	1.0042095
2.0336914	2.4897406
2.0361328	5.629945
2.0385742	8.578064
2.0410156	11.269821
2.043457	13.658835
2.0458984	15.706723
2.0483398	17.395662
2.0507812	18.747906
2.0532227	19.837835
2.055664	20.77974
2.0581055	21.710115
2.0605469	22.767887
2.0629883	24.0676
2.0654297	25.663855
2.067871	27.527494
2.0703125	29.558325
2.072754	31.62328
2.0751953	33.58424
2.0776367	35.31544
2.0800781	36.71407
2.0825195	37.711803
2.084961	38.27838
2.0874023	38.414604
2.0898438	38.14335
2.0922852	37.50447
2.0947266	36.554516
2.097168	35.35887
2.0996094	33.97976
2.1020508	32.470932
2.1044922	30.877268
2.1069336	29.238094
2.109375	27.586718
2.1118164	25.945972
2.1142578	24.334955
2.1166992	22.779222
2.1191406	21.321074
2.121582	20.020365
2.1240234	18.95351
2.1264648	18.212032
2.1289062	17.890112
2.1313477	18.056421
2.133789	18.720217
2.1362305	19.827543
2.1386719	21.282772
2.1411133	22.974688
2.1435547	24.786165
2.145996	26.603764
2.1484375	28.32805
2.150879	29.881824
2.1533203	31.207022
2.1557617	32.257248
2.1582031	32.994377
2.1606445	33.395374
2.163086	33.45643
2.1655273	33.18868
2.1679688	32.61228
2.1704102	31.75338
2.1728516	30.648487
2.175293	29.345823
2.1777344	27.903715
2.1801758	26.385729
2.1826172	24.859623
2.1850586	23.39537
2.1875	22.057306
2.1899414	20.893402
2.1923828	19.928493
2.1948242	19.166166
2.1972656	18.594662
2.199707	18.193363
2.2021484	17.933943
2.2045898	17.783329
2.2070312	17.710835
2.2094727	17.693508
2.211914	17.719172
2.2143555	17.779057
2.2167969	17.861912
2.2192383	17.953714
2.2216797	18.042309
2.224121	18.120169
2.2265625	18.181942
2.229004	18.223518
2.2314453	18.239347
2.2338867	18.223473
2.2363281	18.167553
2.2387695	18.05998
2.241211	17.887783
2.2436523	17.641787
2.2460938	17.316236
2.2485352	16.910147
2.2509766	16.42474
2.253418	15.865746
2.2558594	15.244817
2.2583008	14.577478
2.2607422	13.881621
2.2631836	13.173811
2.265625	12.472929
2.2680664	11.801394
2.2705078	11.184385
2.2729492	10.644663
2.2753906	10.201271
2.277832	9.867941
2.2802734	9.656437
2.2827148	9.574141
2.2851562	9.621095
2.2875977	9.788423
2.290039	10.060577
2.2924805	10.420036
2.2949219	10.848314
2.2973633	11.324061
2.2998047	11.823849
2.302246	12.324072
2.3046875	12.80511
2.307129	13.251161
2.3095703	13.648186
2.3120117	13.98278
2.3144531	14.243752
2.3168945	14.424392
2.319336	14.521149
2.3217773	14.533531
2.3242188	14.463731
2.3266602	14.3173
2.3291016	14.104751
2.331543	13.8395
2.3339844	13.539992
2.3364258	13.230492
2.3388672	12.942948
2.3413086	12.715462
2.34375	12.588703
2.3461914	12.601513
2.3486328	12.78638
2.3510742	13.16368
2.3535156	13.736169
2.355957	14.486519
2.3583984	15.377899
2.3608398	16.360365
2.3632812	17.378876
2.3657227	18.378176
2.368164	19.30797
2.3706055	20.12434
2.3730469	20.79236
2.3754883	21.28902
2.3779297	21.602947
2.380371	21.732363
2.3828125	21.683296
2.385254	21.470272
2.3876953	21.115324
2.3901367	20.646105
2.3925781	20.090574
2.3950195	19.472477
2.397461	18.811394
2.3999023	18.12257
2.4023438	17.416498
2.4047852	16.697752
2.4072266	15.964215
2.409668	15.207289
2.4121094	14.418083
2.4145508	13.588123
2.4169922	12.712391
2.4194336	11.789369
2.421875	10.819586
2.4243164	9.807493
2.4267578	8.760442
2.4291992	7.687862
2.4316406	6.601402
2.434082	5.514879
2.4365234	4.4447465
2.4389648	3.410197
2.4414062	2.4387703
2.4438477	1.5900306
2.446289	1.0627964
2.4487305	1.2117689
2.4511719	1.8009748
2.4536133	2.4848297
2.4560547	3.1721659
2.458496	3.8484702
