
X-Axis: Frequency (hz)
Y-Axis: Fourier Amplitude (cm/s)
Number of Data Sets: 4


DATASET #1

Name: FAS H1 (cm/s)
Num Points: 2044
Info: 

X, Y Data:
0.009765625	0.15417312
0.012207031	0.20668444
0.014648438	0.25854787
0.017089844	0.3056694
0.01953125	0.34630272
0.021972656	0.38249582
0.024414062	0.42014733
0.026855469	0.46619225
0.029296875	0.5228941
0.03173828	0.58365107
0.034179688	0.63426197
0.036621094	0.65800506
0.0390625	0.64108044
0.041503906	0.57682955
0.043945312	0.46882457
0.04638672	0.33390683
0.048828125	0.21146797
0.05126953	0.18224558
0.053710938	0.24866411
0.056152344	0.3223253
0.05859375	0.3913164
0.061035156	0.49768388
0.06347656	0.68037784
0.06591797	0.93086565
0.068359375	1.2067398
0.07080078	1.4560046
0.07324219	1.6294309
0.075683594	1.688882
0.078125	1.6146125
0.080566406	1.4119751
0.08300781	1.1195772
0.08544922	0.8280064
0.087890625	0.7023997
0.09033203	0.818069
0.09277344	0.9976701
0.095214844	1.0831505
0.09765625	1.0067874
0.10009766	0.75525934
0.10253906	0.36120114
0.10498047	0.239915
0.10742188	0.7597124
0.10986328	1.2763265
0.11230469	1.6979822
0.11474609	1.9802043
0.1171875	2.1163743
0.11962891	2.1444752
0.12207031	2.1427655
0.12451172	2.1985552
0.12695312	2.3512118
0.12939453	2.564459
0.13183594	2.7627707
0.13427734	2.881164
0.13671875	2.8895452
0.13916016	2.7968297
0.14160156	2.6434865
0.14404297	2.4842901
0.14648438	2.3634918
0.14892578	2.2952604
0.15136719	2.2676084
0.1538086	2.2665606
0.15625	2.2934685
0.1586914	2.3577487
0.16113281	2.454407
0.16357422	2.5532694
0.16601562	2.6156728
0.16845703	2.6280944
0.17089844	2.6329043
0.17333984	2.72913
0.17578125	3.0073893
0.17822266	3.4563365
0.18066406	3.9600906
0.18310547	4.3711357
0.18554688	4.5663786
0.18798828	4.472051
0.19042969	4.072878
0.1928711	3.411307
0.1953125	2.577864
0.1977539	1.6953807
0.20019531	0.9106065
0.20263672	0.47549066
0.20507812	0.6207342
0.20751953	0.856155
0.20996094	1.0365547
0.21240234	1.2307818
0.21484375	1.471112
0.21728516	1.7004018
0.21972656	1.8236268
0.22216797	1.763988
0.22460938	1.4954051
0.22705078	1.0827861
0.22949219	0.8260819
0.2319336	1.1610869
0.234375	1.7683415
0.2368164	2.2973328
0.23925781	2.6036005
0.24169922	2.645189
0.24414062	2.4771056
0.24658203	2.2633834
0.24902344	2.238746
0.25146484	2.5213094
0.25390625	3.0010762
0.25634766	3.5215554
0.25878906	4.0042562
0.26123047	4.432318
0.26367188	4.800661
0.26611328	5.0829854
0.2685547	5.2325344
0.2709961	5.2061443
0.2734375	4.987066
0.2758789	4.5904655
0.2783203	4.0514107
0.28076172	3.40621
0.28320312	2.6818523
0.28564453	1.9039574
0.28808594	1.138472
0.29052734	0.7200048
0.29296875	1.1839583
0.29541016	1.9399735
0.29785156	2.6715539
0.30029297	3.2966015
0.30273438	3.775898
0.30517578	4.091455
0.3076172	4.245822
0.3100586	4.2609544
0.3125	4.1691055
0.3149414	3.9963365
0.3173828	3.7482588
0.31982422	3.412507
0.32226562	2.9829233
0.32470703	2.4992955
0.32714844	2.1007042
0.32958984	2.0466487
0.33203125	2.4883692
0.33447266	3.270726
0.33691406	4.180943
0.33935547	5.0603166
0.34179688	5.7741084
0.34423828	6.2017922
0.3466797	6.2537932
0.3491211	5.8976445
0.3515625	5.183978
0.3540039	4.2742896
0.3564453	3.4750817
0.35888672	3.1839838
0.36132812	3.492324
0.36376953	4.0266585
0.36621094	4.432406
0.36865234	4.563728
0.37109375	4.426026
0.37353516	4.106512
0.37597656	3.7121468
0.37841797	3.3222456
0.38085938	2.979166
0.38330078	2.7193615
0.3857422	2.5937536
0.3881836	2.6234715
0.390625	2.7429903
0.3930664	2.834531
0.3955078	2.8127005
0.39794922	2.6768675
0.40039062	2.5193682
0.40283203	2.4750836
0.40527344	2.5981998
0.40771484	2.7950158
0.41015625	2.9150517
0.41259766	2.8531954
0.41503906	2.5838385
0.41748047	2.1656015
0.41992188	1.7444764
0.42236328	1.5253782
0.4248047	1.5849184
0.4272461	1.7474144
0.4296875	1.8348497
0.4321289	1.8162017
0.4345703	1.7890574
0.43701172	1.8891084
0.43945312	2.1448505
0.44189453	2.4608579
0.44433594	2.7336738
0.44677734	2.9119
0.44921875	2.9913492
0.45166016	2.9964492
0.45410156	2.970877
0.45654297	2.9798348
0.45898438	3.1048634
0.46142578	3.4041102
0.4638672	3.8613408
0.4663086	4.388693
0.46875	4.878947
0.4711914	5.2543535
0.4736328	5.4896164
0.47607422	5.608491
0.47851562	5.65913
0.48095703	5.6779737
0.48339844	5.658778
0.48583984	5.541928
0.48828125	5.231858
0.49072266	4.6390023
0.49316406	3.7422507
0.49560547	2.6975346
0.49804688	2.1127264
0.5004883	2.7295709
0.5029297	3.9042108
0.5053711	4.9029746
0.5078125	5.414735
0.5102539	5.347078
0.5126953	4.7696357
0.5151367	3.8811507
0.5175781	2.9600866
0.52001953	2.2866533
0.52246094	1.9998871
0.52490234	2.0096812
0.52734375	2.2128553
0.52978516	2.6439373
0.53222656	3.3651907
0.53466797	4.384198
0.5371094	5.6674137
0.5395508	7.155891
0.5419922	8.77249
0.5444336	10.435987
0.546875	12.072083
0.5493164	13.60702
0.5517578	14.951065
0.5541992	15.993739
0.5566406	16.622553
0.55908203	16.755533
0.56152344	16.36596
0.56396484	15.487426
0.56640625	14.207071
0.56884766	12.667507
0.57128906	11.096745
0.57373047	9.854314
0.5761719	9.38828
0.5786133	9.93534
0.5810547	11.247808
0.5834961	12.813636
0.5859375	14.172656
0.5883789	15.010334
0.5908203	15.163157
0.5932617	14.632866
0.5957031	13.623476
0.59814453	12.581039
0.60058594	12.130141
0.60302734	12.715093
0.60546875	14.178829
0.60791016	15.924979
0.61035156	17.372105
0.61279297	18.172203
0.6152344	18.246769
0.6176758	17.753294
0.6201172	16.98618
0.6225586	16.203005
0.625	15.451544
0.6274414	14.549707
0.6298828	13.271337
0.6323242	11.622567
0.6347656	10.115741
0.63720703	9.8406925
0.63964844	11.505391
0.64208984	14.440584
0.64453125	17.574497
0.64697266	20.183887
0.64941406	21.905993
0.65185547	22.658691
0.6542969	22.568214
0.6567383	21.879992
0.6591797	20.85828
0.6616211	19.705753
0.6640625	18.536337
0.6665039	17.405224
0.6689453	16.365974
0.6713867	15.516481
0.6738281	15.009489
0.67626953	15.015199
0.67871094	15.641852
0.68115234	16.865158
0.68359375	18.531551
0.68603516	20.426504
0.68847656	22.348623
0.69091797	24.153843
0.6933594	25.76914
0.6958008	27.178167
0.6982422	28.381493
0.7006836	29.335152
0.703125	29.887295
0.7055664	29.747602
0.7080078	28.522907
0.7104492	25.818708
0.7128906	21.373398
0.71533203	15.178256
0.71777344	7.571542
0.72021484	2.0080898
0.72265625	10.032213
0.72509766	17.978045
0.72753906	24.555553
0.72998047	29.296597
0.7324219	32.08815
0.7348633	33.128563
0.7373047	32.802757
0.7397461	31.509102
0.7421875	29.529259
0.7446289	27.034243
0.7470703	24.254347
0.7495117	21.747015
0.7519531	20.556305
0.75439453	21.737093
0.75683594	25.296627
0.75927734	30.21449
0.76171875	35.372765
0.76416016	39.99472
0.76660156	43.67844
0.76904297	46.343395
0.7714844	48.130764
0.7739258	49.241474
0.7763672	49.752247
0.7788086	49.512486
0.78125	48.198383
0.7836914	45.493027
0.7861328	41.27991
0.7885742	35.757687
0.7910156	29.445639
0.79345703	23.097128
0.79589844	17.545425
0.79833984	13.466843
0.80078125	11.023662
0.80322266	9.703744
0.80566406	8.858004
0.80810547	8.323795
0.8105469	8.420556
0.8129883	9.488681
0.8154297	11.494633
0.8178711	14.113308
0.8203125	16.912745
0.8227539	19.397835
0.8251953	21.048342
0.8276367	21.411892
0.8300781	20.210266
0.83251953	17.4135
0.83496094	13.252085
0.83740234	8.191583
0.83984375	3.2216425
0.84228516	4.2896123
0.84472656	9.152615
0.84716797	13.597623
0.8496094	17.113081
0.8520508	19.40541
0.8544922	20.21601
0.8569336	19.355354
0.859375	16.78382
0.8618164	12.676066
0.8642578	7.433328
0.8666992	1.7246274
0.8691406	4.3438807
0.87158203	9.5672655
0.87402344	13.89934
0.87646484	17.200384
0.87890625	19.57707
0.88134766	21.304007
0.88378906	22.73062
0.88623047	24.170286
0.8886719	25.78165
0.8911133	27.488909
0.8935547	29.001554
0.8959961	29.937132
0.8984375	29.974907
0.9008789	28.966158
0.9033203	26.963434
0.9057617	24.169918
0.9082031	20.849026
0.91064453	17.255098
0.91308594	13.664432
0.91552734	10.56579
0.91796875	8.931585
0.92041016	9.612282
0.92285156	11.877559
0.92529297	14.431785
0.9277344	16.531673
0.9301758	17.891567
0.9326172	18.5037
0.9350586	18.531599
0.9375	18.237913
0.9399414	17.934227
0.9423828	17.950254
0.9448242	18.588501
0.9472656	20.04652
0.94970703	22.336308
0.95214844	25.26703
0.95458984	28.495783
0.95703125	31.604671
0.95947266	34.175117
0.96191406	35.84961
0.96435547	36.37122
0.9667969	35.596546
0.9692383	33.49148
0.9716797	30.123621
0.9741211	25.668638
0.9765625	20.423313
0.9790039	14.806947
0.9814453	9.335047
0.9838867	4.609901
0.9863281	1.9384344
0.98876953	3.0827255
0.99121094	4.2411103
0.99365234	4.4415402
0.99609375	3.8840642
0.99853516	2.9888787
1.0009766	2.444331
1.003418	3.0240567
1.0058594	4.5443325
1.0083008	6.645739
1.0107422	9.310366
1.0131836	12.584569
1.015625	16.400402
1.0180664	20.522465
1.0205078	24.58615
1.0229492	28.181076
1.0253906	30.9338
1.027832	32.55733
1.0302734	32.867584
1.0327148	31.782183
1.0351562	29.326141
1.0375977	25.655575
1.0400391	21.08589
1.0424805	16.094334
1.0449219	11.277066
1.0473633	7.279609
1.0498047	4.71386
1.0522461	3.8082962
1.0546875	3.928009
1.0571289	4.611922
1.0595703	5.9542294
1.0620117	7.8125806
1.0644531	9.714261
1.0668945	11.102187
1.0693359	11.454761
1.0717773	10.357775
1.0742188	7.592422
1.0766602	3.3620563
1.0791016	3.6440864
1.081543	10.28968
1.0839844	17.533787
1.0864258	24.508638
1.0888672	30.599686
1.0913086	35.33981
1.09375	38.425064
1.0961914	39.7364
1.0986328	39.369873
1.1010742	37.670887
1.1035156	35.243595
1.105957	32.876484
1.1083984	31.322552
1.1108398	30.959558
1.1132812	31.602125
1.1157227	32.693233
1.1181641	33.66674
1.1206055	34.173927
1.1230469	34.13989
1.1254883	33.723083
1.1279297	33.209244
1.1303711	32.858715
1.1328125	32.758938
1.1352539	32.76947
1.1376953	32.57676
1.1401367	31.8089
1.1425781	30.144732
1.1450195	27.40023
1.1474609	23.579006
1.1499023	18.875652
1.1523438	13.64985
1.1547852	8.508466
1.1572266	5.2947946
1.159668	7.410353
1.1621094	12.034311
1.1645508	16.751038
1.1669922	20.936619
1.1694336	24.343779
1.171875	26.869444
1.1743164	28.475506
1.1767578	29.137812
1.1791992	28.839891
1.1816406	27.621016
1.184082	25.63509
1.1865234	23.177576
1.1889648	20.660034
1.1914062	18.543419
1.1938477	17.228277
1.1962891	16.895075
1.1987305	17.392567
1.2011719	18.324621
1.2036133	19.267744
1.2060547	19.931995
1.2084961	20.224049
1.2109375	20.251947
1.2133789	20.28269
1.2158203	20.642006
1.2182617	21.558374
1.2207031	23.03673
1.2231445	24.858448
1.2255859	26.6885
1.2280273	28.197723
1.2304688	29.145605
1.2329102	29.42375
1.2353516	29.062857
1.237793	28.213463
1.2402344	27.104792
1.2426758	25.988993
1.2451172	25.071873
1.2475586	24.447247
1.25	24.06121
1.2524414	23.730223
1.2548828	23.19999
1.2573242	22.215744
1.2597656	20.583773
1.262207	18.230717
1.2646484	15.29025
1.2670898	12.294198
1.2695312	10.550874
1.2719727	11.712732
1.2744141	15.481288
1.2768555	20.30767
1.2792969	25.12928
1.2817383	29.343687
1.2841797	32.60308
1.2866211	34.748478
1.2890625	35.787888
1.2915039	35.882782
1.2939453	35.31837
1.2963867	34.449085
1.2988281	33.61268
1.3012695	33.030872
1.3037109	32.75428
1.3061523	32.693527
1.3085938	32.72054
1.3110352	32.776276
1.3134766	32.92059
1.315918	33.30463
1.3183594	34.073112
1.3208008	35.24965
1.3232422	36.674007
1.3256836	38.029095
1.328125	38.927994
1.3305664	39.009872
1.3330078	38.0102
1.3354492	35.800266
1.3378906	32.40329
1.340332	27.993689
1.3427734	22.887417
1.3452148	17.537088
1.3476562	12.568973
1.3500977	8.921105
1.3525391	7.701132
1.3549805	8.562892
1.3574219	9.852998
1.3598633	10.735738
1.3623047	11.313078
1.3647461	12.28978
1.3671875	14.469355
1.3696289	18.049828
1.3720703	22.554989
1.3745117	27.261868
1.3769531	31.458818
1.3793945	34.525284
1.3818359	35.969955
1.3842773	35.463905
1.3867188	32.86873
1.3891602	28.251823
1.3916016	21.885918
1.394043	14.229592
1.3964844	5.905168
1.3989258	2.7024364
1.4013672	10.270874
1.4038086	16.589195
1.40625	21.028929
1.4086914	23.225437
1.4111328	23.040386
1.4135742	20.584223
1.4160156	16.274752
1.418457	11.112134
1.4208984	8.142515
1.4233398	11.60459
1.4257812	18.202341
1.4282227	24.91457
1.4306641	30.685696
1.4331055	35.01945
1.4355469	37.69136
1.4379883	38.686913
1.4404297	38.17664
1.4428711	36.492287
1.4453125	34.094242
1.4477539	31.520725
1.4501953	29.300505
1.4526367	27.815939
1.4550781	27.163261
1.4575195	27.12873
1.4599609	27.329302
1.4624023	27.398605
1.4648438	27.099798
1.4672852	26.35437
1.4697266	25.228434
1.472168	23.89646
1.4746094	22.5888
1.4770508	21.517979
1.4794922	20.789263
1.4819336	20.339733
1.484375	19.953571
1.4868164	19.34761
1.4892578	18.278091
1.4916992	16.629017
1.4941406	14.4981
1.496582	12.319619
1.4990234	11.01392
1.5014648	11.627496
1.5039062	14.121984
1.5063477	17.482824
1.5087891	20.78903
1.5112305	23.452356
1.5136719	25.135998
1.5161133	25.702625
1.5185547	25.200119
1.5209961	23.859568
1.5234375	22.089859
1.5258789	20.451096
1.5283203	19.54325
1.5307617	19.764244
1.5332031	21.083511
1.5356445	23.12047
1.5380859	25.419374
1.5405273	27.62108
1.5429688	29.489777
1.5454102	30.884666
1.5478516	31.728178
1.550293	31.989508
1.5527344	31.67315
1.5551758	30.810036
1.5576172	29.445227
1.5600586	27.620481
1.5625	25.358631
1.5649414	22.661764
1.5673828	19.536459
1.5698242	16.070963
1.5722656	12.644588
1.574707	10.439116
1.5771484	11.453382
1.5795898	15.790299
1.5820312	21.806574
1.5844727	28.347517
1.5869141	34.70747
1.5893555	40.350822
1.5917969	44.831593
1.5942383	47.789124
1.5966797	48.96201
1.5991211	48.205986
1.6015625	45.509174
1.6040039	41.003963
1.6064453	34.982773
1.6088867	27.944605
1.6113281	20.767443
1.6137695	15.271315
1.6162109	14.555404
1.6186523	18.801632
1.6210938	24.660547
1.6235352	30.007414
1.6259766	33.868877
1.628418	35.736546
1.6308594	35.35385
1.6333008	32.66387
1.6357422	27.810997
1.6381836	21.207184
1.640625	13.905267
1.6430664	9.836197
1.6455078	15.044415
1.6479492	24.646671
1.6503906	34.902992
1.652832	44.642555
1.6552734	53.239693
1.6577148	60.260838
1.6601562	65.39993
1.6625977	68.464386
1.6650391	69.37473
1.6674805	68.16501
1.6699219	64.97789
1.6723633	60.059746
1.6748047	53.75534
1.6772461	46.505913
1.6796875	38.844612
1.6821289	31.395418
1.6845703	24.868645
1.6870117	19.999123
1.6894531	17.240849
1.6918945	16.241783
1.6943359	15.929525
1.6967773	15.296741
1.6992188	13.820105
1.7016602	11.428098
1.7041016	8.444864
1.706543	5.8539677
1.7089844	5.8205943
1.7114258	8.5415745
1.7138672	11.988215
1.7163086	15.285853
1.71875	18.250498
1.7211914	20.976877
1.7236328	23.659145
1.7260742	26.434992
1.7285156	29.271904
1.730957	31.947586
1.7333984	34.119568
1.7358398	35.427067
1.7382812	35.587166
1.7407227	34.45733
1.7431641	32.07059
1.7456055	28.644297
1.7480469	24.576288
1.7504883	20.44748
1.7529297	17.019987
1.7553711	15.094375
1.7578125	14.984825
1.7602539	16.13478
1.7626953	17.66628
1.7651367	18.971666
1.7675781	19.77361
1.7700195	20.003002
1.7724609	19.690872
1.7749023	18.896553
1.7773438	17.6663
1.7797852	16.019217
1.7822266	13.953304
1.784668	11.464252
1.7871094	8.571129
1.7895508	5.344473
1.7919922	2.0200086
1.7944336	2.1878033
1.796875	5.580402
1.7993164	8.878703
1.8017578	11.8271
1.8041992	14.316507
1.8066406	16.31285
1.809082	17.851368
1.8115234	19.027323
1.8139648	19.971903
1.8164062	20.816597
1.8188477	21.651941
1.8212891	22.501635
1.8237305	23.322977
1.8261719	24.031248
1.8286133	24.52715
1.8310547	24.728098
1.8334961	24.593733
1.8359375	24.146515
1.8383789	23.484474
1.8408203	22.779749
1.8432617	22.254797
1.8457031	22.114708
1.8481445	22.4521
1.8505859	23.178661
1.8530273	24.04459
1.8554688	24.724907
1.8579102	24.913584
1.8603516	24.3873
1.862793	23.045576
1.8652344	20.941763
1.8676758	18.322224
1.8701172	15.683249
1.8725586	13.808204
1.875	13.509469
1.8774414	14.883057
1.8798828	17.170685
1.8823242	19.508127
1.8847656	21.311092
1.887207	22.256548
1.8896484	22.21207
1.8920898	21.189787
1.8945312	19.316166
1.8969727	16.803701
1.8994141	13.928557
1.9018555	11.021955
1.9042969	8.485227
1.9067383	6.7974005
1.9091797	6.3048296
1.9116211	6.767905
1.9140625	7.5880327
1.9165039	8.372597
1.9189453	8.995885
1.9213867	9.476539
1.9238281	9.889837
1.9262695	10.314094
1.9287109	10.805644
1.9311523	11.392553
1.9335938	12.082765
1.9360352	12.873878
1.9384766	13.755338
1.940918	14.705056
1.9433594	15.677218
1.9458008	16.596226
1.9482422	17.36105
1.9506836	17.861763
1.953125	17.998789
1.9555664	17.700666
1.9580078	16.942818
1.9604492	15.763039
1.9628906	14.275356
1.965332	12.675478
1.9677734	11.235654
1.9702148	10.253791
1.9726562	9.911313
1.9750977	10.116993
1.9775391	10.54666
1.9799805	10.83551
1.9824219	10.7036
1.9848633	9.980911
1.9873047	8.593178
1.9897461	6.543462
1.9921875	3.8977184
1.9946289	0.7722973
1.9970703	2.6828475
1.9995117	6.2926354
2.0019531	9.881628
2.0043945	13.277982
2.006836	16.322727
2.0092773	18.875368
2.0117188	20.820522
2.0141602	22.071907
2.0166016	22.577597
2.019043	22.327707
2.0214844	21.369246
2.0239258	19.83437
2.0263672	17.98585
2.0288086	16.284237
2.03125	15.409627
2.0336914	16.017809
2.0361328	18.229475
2.0385742	21.56773
2.0410156	25.392763
2.043457	29.164158
2.0458984	32.46734
2.0483398	34.987785
2.0507812	36.496433
2.0532227	36.84147
2.055664	35.943253
2.0581055	33.79352
2.0605469	30.456297
2.0629883	26.06765
2.0654297	20.826096
2.067871	14.986945
2.0703125	8.885715
2.072754	3.365848
2.0751953	4.676604
2.0776367	9.867917
2.0800781	14.673332
2.0825195	18.692564
2.084961	21.806324
2.0874023	24.00219
2.0898438	25.34487
2.0922852	25.946632
2.0947266	25.931042
2.097168	25.39768
2.0996094	24.394705
2.1020508	22.909555
2.1044922	20.884855
2.1069336	18.254372
2.109375	14.985497
2.1118164	11.110854
2.1142578	6.749922
2.1166992	2.2406042
2.1191406	3.1692393
2.121582	7.7403045
2.1240234	12.03518
2.1264648	15.782569
2.1289062	18.866707
2.1313477	21.287981
2.133789	23.16819
2.1362305	24.72584
2.1386719	26.209507
2.1411133	27.806938
2.1435547	29.574118
2.145996	31.408325
2.1484375	33.077923
2.150879	34.28793
2.1533203	34.75199
2.1557617	34.239326
2.1582031	32.597904
2.1606445	29.761805
2.163086	25.754496
2.1655273	20.682796
2.1679688	14.732372
2.1704102	8.209592
2.1728516	2.6703515
2.175293	7.1504397
2.1777344	14.056968
2.1801758	20.678558
2.1826172	26.594677
2.1850586	31.501465
2.1875	35.13907
2.1899414	37.29404
2.1923828	37.811024
2.1948242	36.60632
2.1972656	33.68109
2.199707	29.133924
2.2021484	23.168325
2.2045898	16.109493
2.2070312	8.5351715
2.2094727	3.8631854
2.211914	9.841298
2.2143555	17.300854
2.2167969	24.013716
2.2192383	29.457859
2.2216797	33.329136
2.224121	35.469467
2.2265625	35.86741
2.229004	34.664486
2.2314453	32.15577
2.2338867	28.787148
2.2363281	25.147814
2.2387695	21.94022
2.241211	19.844442
2.2436523	19.194391
2.2460938	19.716412
2.2485352	20.754679
2.2509766	21.712633
2.253418	22.244965
2.2558594	22.241709
2.2583008	21.75349
2.2607422	20.915613
2.2631836	19.884926
2.265625	18.793158
2.2680664	17.723595
2.2705078	16.715614
2.2729492	15.791905
2.2753906	14.988115
2.277832	14.363889
2.2802734	13.979073
2.2827148	13.848741
2.2851562	13.906975
2.2875977	14.014928
2.290039	14.004294
2.2924805	13.721775
2.2949219	13.055306
2.2973633	11.94365
2.2998047	10.380818
2.302246	8.4278345
2.3046875	6.2575197
2.307129	4.3786016
2.3095703	4.1605906
2.3120117	6.1512485
2.3144531	9.047018
2.3168945	12.097831
2.319336	14.969666
2.3217773	17.439257
2.3242188	19.330309
2.3266602	20.512058
2.3291016	20.905127
2.331543	20.487185
2.3339844	19.297632
2.3364258	17.442509
2.3388672	15.093063
2.3413086	12.485505
2.34375	9.941387
2.3461914	7.922988
2.3486328	7.0178857
2.3510742	7.472127
2.3535156	8.808392
2.355957	10.424716
2.3583984	11.979068
2.3608398	13.31955
2.3632812	14.390636
2.3657227	15.186875
2.368164	15.731021
2.3706055	16.06151
2.3730469	16.223507
2.3754883	16.259773
2.3779297	16.19261
2.380371	16.008015
2.3828125	15.652466
2.385254	15.049229
2.3876953	14.125367
2.3901367	12.840064
2.3925781	11.209996
2.3950195	9.333085
2.397461	7.420283
2.3999023	5.840784
2.4023438	5.082191
2.4047852	5.2936773
2.4072266	5.9596744
2.409668	6.487716
2.4121094	6.551889
2.4145508	6.044845
2.4169922	5.03003
2.4194336	3.7775965
2.421875	2.9704616
2.4243164	3.487607
2.4267578	4.885297
2.4291992	6.343323
2.4316406	7.50997
2.434082	8.314467
2.4365234	8.892797
2.4389648	9.547035
2.4414062	10.609694
