
X-Axis: Frequency (hz)
Y-Axis: Fourier Amplitude (cm/s)
Number of Data Sets: 4


DATASET #1

Name: FAS H1 (cm/s)
Num Points: 2044
Info: 

X, Y Data:
0.009765625	0.0662705
0.012207031	0.099172086
0.014648438	0.13696742
0.017089844	0.1775419
0.01953125	0.21883208
0.021972656	0.25921753
0.024414062	0.29787043
0.026855469	0.3351812
0.029296875	0.37264723
0.03173828	0.4120539
0.034179688	0.4542688
0.036621094	0.49850768
0.0390625	0.5423362
0.041503906	0.58227926
0.043945312	0.61457026
0.04638672	0.6355776
0.048828125	0.6417714
0.05126953	0.62962836
0.053710938	0.5963259
0.056152344	0.5414375
0.05859375	0.46898326
0.061035156	0.3884336
0.06347656	0.31423354
0.06591797	0.26272753
0.068359375	0.24388029
0.07080078	0.25325945
0.07324219	0.27941263
0.075683594	0.31442228
0.078125	0.35356608
0.080566406	0.39330193
0.08300781	0.43385682
0.08544922	0.4833151
0.087890625	0.5572828
0.09033203	0.67080367
0.09277344	0.82952017
0.095214844	1.0289265
0.09765625	1.2583512
0.10009766	1.5027642
0.10253906	1.742064
0.10498047	1.9507779
0.10742188	2.1007938
0.10986328	2.1678452
0.11230469	2.14082
0.11474609	2.031787
0.1171875	1.8828477
0.11962891	1.7603031
0.12207031	1.7200055
0.12451172	1.7561852
0.12695312	1.7997168
0.12939453	1.7738554
0.13183594	1.6442918
0.13427734	1.4474428
0.13671875	1.3081542
0.13916016	1.3796065
0.14160156	1.6537762
0.14404297	1.9767272
0.14648438	2.2179697
0.14892578	2.314104
0.15136719	2.2585225
0.1538086	2.0861924
0.15625	1.8537848
0.1586914	1.618052
0.16113281	1.4268194
0.16357422	1.3392526
0.16601562	1.4408026
0.16845703	1.7706211
0.17089844	2.2605872
0.17333984	2.792912
0.17578125	3.2529297
0.17822266	3.546911
0.18066406	3.6115155
0.18310547	3.4204297
0.18554688	2.987774
0.18798828	2.3723037
0.19042969	1.7027551
0.1928711	1.2901862
0.1953125	1.5557774
0.1977539	2.2736714
0.20019531	3.0831451
0.20263672	3.843589
0.20507812	4.4977074
0.20751953	5.01819
0.20996094	5.3948483
0.21240234	5.6329565
0.21484375	5.754884
0.21728516	5.800687
0.21972656	5.8239174
0.22216797	5.880416
0.22460938	6.0133715
0.22705078	6.2432194
0.22949219	6.5691996
0.2319336	6.979449
0.234375	7.460878
0.2368164	8.004875
0.23925781	8.610308
0.24169922	9.283528
0.24414062	10.031459
0.24658203	10.845514
0.24902344	11.684149
0.25146484	12.468165
0.25390625	13.096156
0.25634766	13.473618
0.25878906	13.541549
0.26123047	13.292192
0.26367188	12.767069
0.26611328	12.040003
0.2685547	11.194092
0.2709961	10.302429
0.2734375	9.416939
0.2758789	8.5647745
0.2783203	7.755006
0.28076172	7.0074706
0.28320312	6.4120126
0.28564453	6.1775274
0.28808594	6.5385685
0.29052734	7.502112
0.29296875	8.792424
0.29541016	10.054696
0.29785156	11.008542
0.30029297	11.500875
0.30273438	11.517231
0.30517578	11.166808
0.3076172	10.635868
0.3100586	10.108875
0.3125	9.682027
0.3149414	9.325926
0.3173828	8.932733
0.31982422	8.405545
0.32226562	7.722318
0.32470703	6.950244
0.32714844	6.2219152
0.32958984	5.6902843
0.33203125	5.481597
0.33447266	5.66615
0.33691406	6.2450733
0.33935547	7.1339054
0.34179688	8.156769
0.34423828	9.076581
0.3466797	9.653526
0.3491211	9.71182
0.3515625	9.204268
0.3540039	8.27362
0.3564453	7.3101883
0.35888672	6.9103627
0.36132812	7.452801
0.36376953	8.651967
0.36621094	9.9230385
0.36865234	10.819977
0.37109375	11.093545
0.37353516	10.641742
0.37597656	9.472582
0.37841797	7.7039847
0.38085938	5.6711464
0.38330078	4.407555
0.3857422	5.5858655
0.3881836	8.577323
0.390625	12.084983
0.3930664	15.496999
0.3955078	18.445019
0.39794922	20.655315
0.40039062	21.930616
0.40283203	22.1555
0.40527344	21.299866
0.40771484	19.415031
0.41015625	16.624146
0.41259766	13.112545
0.41503906	9.136947
0.41748047	5.1721454
0.41992188	3.3031037
0.42236328	6.1317997
0.4248047	10.071694
0.4272461	13.847196
0.4296875	17.176779
0.4321289	19.94863
0.4345703	22.131758
0.43701172	23.759212
0.43945312	24.914846
0.44189453	25.712471
0.44433594	26.267492
0.44677734	26.668064
0.44921875	26.955206
0.45166016	27.118568
0.45410156	27.106596
0.45654297	26.843695
0.45898438	26.246975
0.46142578	25.238436
0.4638672	23.753536
0.4663086	21.748844
0.46875	19.212242
0.4711914	16.179785
0.4736328	12.770438
0.47607422	9.287167
0.47851562	6.58583
0.48095703	6.5395555
0.48339844	9.323472
0.48583984	13.108512
0.48828125	16.968904
0.49072266	20.558903
0.49316406	23.736567
0.49560547	26.46171
0.49804688	28.756937
0.5004883	30.679508
0.5029297	32.296078
0.5053711	33.663902
0.5078125	34.821907
0.5102539	35.793125
0.5126953	36.59452
0.5151367	37.24792
0.5175781	37.78719
0.52001953	38.256428
0.52246094	38.6987
0.52490234	39.13684
0.52734375	39.55376
0.52978516	39.881756
0.53222656	40.00668
0.53466797	39.785786
0.5371094	39.07271
0.5395508	37.74072
0.5419922	35.700054
0.5444336	32.907074
0.546875	29.368498
0.5493164	25.14352
0.5517578	20.348505
0.5541992	15.174144
0.5566406	9.9610195
0.55908203	5.671262
0.56152344	5.5116835
0.56396484	9.181041
0.56640625	13.217319
0.56884766	16.627321
0.57128906	19.087425
0.57373047	20.48373
0.5761719	20.879524
0.5786133	20.554691
0.5810547	20.047232
0.5834961	20.092733
0.5859375	21.312935
0.5883789	23.79134
0.5908203	27.046751
0.5932617	30.39157
0.5957031	33.222656
0.59814453	35.132427
0.60058594	35.932724
0.60302734	35.64878
0.60546875	34.495537
0.60791016	32.839783
0.61035156	31.147278
0.61279297	29.906122
0.6152344	29.514952
0.6176758	30.156456
0.6201172	31.736256
0.6225586	33.944
0.625	36.384758
0.6274414	38.696926
0.6298828	40.627876
0.6323242	42.071083
0.6347656	43.06389
0.63720703	43.73835
0.63964844	44.228977
0.64208984	44.573627
0.64453125	44.66142
0.64697266	44.264313
0.64941406	43.13532
0.65185547	41.121124
0.6542969	38.24306
0.6567383	34.72034
0.6591797	30.92314
0.6616211	27.255363
0.6640625	23.991192
0.6665039	21.150377
0.6689453	18.524141
0.6713867	15.85814
0.6738281	13.056813
0.67626953	10.293433
0.67871094	8.027974
0.68115234	6.882462
0.68359375	7.0900984
0.68603516	8.156472
0.68847656	9.546871
0.69091797	11.008615
0.6933594	12.378646
0.6958008	13.454478
0.6982422	14.013555
0.7006836	13.891231
0.703125	13.042265
0.7055664	11.563359
0.7080078	9.693714
0.7104492	7.8430448
0.7128906	6.6720076
0.71533203	6.886926
0.71777344	8.418421
0.72021484	10.573718
0.72265625	12.803239
0.72509766	14.781015
0.72753906	16.298792
0.72998047	17.212984
0.7324219	17.435766
0.7348633	16.963337
0.7373047	15.947274
0.7397461	14.800137
0.7421875	14.248647
0.7446289	15.04138
0.7470703	17.286766
0.7495117	20.354637
0.7519531	23.422789
0.75439453	25.813896
0.75683594	27.054075
0.75927734	26.858263
0.76171875	25.11191
0.76416016	21.86441
0.76660156	17.34977
0.76904297	12.095601
0.7714844	7.5376863
0.7739258	7.615867
0.7763672	12.227599
0.7788086	17.486696
0.78125	22.02099
0.7836914	25.32209
0.7861328	27.124624
0.7885742	27.268024
0.7910156	25.6649
0.79345703	22.32458
0.79589844	17.402596
0.79833984	11.265851
0.80078125	4.983934
0.80322266	5.9889197
0.80566406	13.347492
0.80810547	21.224918
0.8105469	28.897255
0.8129883	36.010933
0.8154297	42.23445
0.8178711	47.27437
0.8203125	50.94116
0.8227539	53.18927
0.8251953	54.103275
0.8276367	53.851627
0.8300781	52.644363
0.83251953	50.720165
0.83496094	48.35128
0.83740234	45.835968
0.83984375	43.455368
0.84228516	41.39949
0.84472656	39.699673
0.84716797	38.20437
0.8496094	36.62
0.8520508	34.589027
0.8544922	31.766678
0.8569336	27.871283
0.859375	22.720575
0.8618164	16.280579
0.8642578	8.781362
0.8666992	2.7224722
0.8691406	9.479436
0.87158203	17.82918
0.87402344	25.303503
0.87646484	31.23973
0.87890625	35.21237
0.88134766	37.002567
0.88378906	36.60616
0.88623047	34.26116
0.8886719	30.506954
0.8911133	26.282358
0.8935547	23.022339
0.8959961	22.349133
0.8984375	24.82883
0.9008789	29.465084
0.9033203	34.942455
0.9057617	40.35775
0.9082031	45.156593
0.91064453	48.98155
0.91308594	51.60018
0.91552734	52.884113
0.91796875	52.804398
0.92041016	51.43399
0.92285156	48.956207
0.92529297	45.67321
0.9277344	41.998825
0.9301758	38.4017
0.9326172	35.277145
0.9350586	32.78784
0.9375	30.789959
0.9399414	28.94248
0.9423828	26.93193
0.9448242	24.66873
0.9472656	22.3819
0.94970703	20.595558
0.95214844	19.910866
0.95458984	20.574095
0.95703125	22.235643
0.95947266	24.239826
0.96191406	26.02202
0.96435547	27.268934
0.9667969	27.927567
0.9692383	28.179073
0.9716797	28.406668
0.9741211	29.129646
0.9765625	30.85315
0.9790039	33.858128
0.9814453	38.075706
0.9838867	43.14024
0.9863281	48.531204
0.98876953	53.693043
0.99121094	58.10877
0.99365234	61.347523
0.99609375	63.09364
0.99853516	63.15973
1.0009766	61.488316
1.003418	58.145313
1.0058594	53.30967
1.0083008	47.258125
1.0107422	40.35112
1.0131836	33.04534
1.015625	25.982653
1.0180664	20.248676
1.0205078	17.655523
1.0229492	19.493113
1.0253906	24.532303
1.027832	30.869747
1.0302734	37.39211
1.0327148	43.503025
1.0351562	48.822033
1.0375977	53.070946
1.0400391	56.047062
1.0424805	57.629333
1.0449219	57.788235
1.0473633	56.5851
1.0498047	54.16794
1.0522461	50.767715
1.0546875	46.69951
1.0571289	42.357334
1.0595703	38.200783
1.0620117	34.72891
1.0644531	32.41313
1.0668945	31.55289
1.0693359	32.117966
1.0717773	33.74381
1.0742188	35.90081
1.0766602	38.063385
1.0791016	39.78712
1.081543	40.72903
1.0839844	40.65533
1.0864258	39.45788
1.0888672	37.192326
1.0913086	34.14309
1.09375	30.904726
1.0961914	28.417486
1.0986328	27.735992
1.1010742	29.35202
1.1035156	32.72395
1.105957	36.72358
1.1083984	40.278355
1.1108398	42.618237
1.1132812	43.294624
1.1157227	42.154793
1.1181641	39.318764
1.1206055	35.160397
1.1230469	30.29006
1.1254883	25.522387
1.1279297	21.777164
1.1303711	19.76831
1.1328125	19.526943
1.1352539	20.439371
1.1376953	21.947956
1.1401367	23.997915
1.1425781	26.92814
1.1450195	31.08104
1.1474609	36.48195
1.1499023	42.80466
1.1523438	49.531586
1.1547852	56.118397
1.1572266	62.094677
1.159668	67.11398
1.1621094	70.98023
1.1645508	73.66628
1.1669922	75.32702
1.1694336	76.30296
1.171875	77.10413
1.1743164	78.354546
1.1767578	80.67431
1.1791992	84.5022
1.1816406	89.93323
1.184082	96.678505
1.1865234	104.15196
1.1889648	111.61472
1.1914062	118.30096
1.1938477	123.51557
1.1962891	126.70773
1.1987305	127.51421
1.2011719	125.7775
1.2036133	121.54009
1.2060547	115.02412
1.2084961	106.59938
1.2109375	96.73783
1.2133789	85.961876
1.2158203	74.79573
1.2182617	63.73081
1.2207031	53.2028
1.2231445	43.5766
1.2255859	35.13029
1.2280273	28.024426
1.2304688	22.261
1.2329102	17.65552
1.2353516	13.901002
1.237793	10.820596
1.2402344	8.894202
1.2426758	9.536483
1.2451172	13.153989
1.2475586	18.57754
1.25	24.84924
1.2524414	31.388115
1.2548828	37.778484
1.2573242	43.69305
1.2597656	48.87724
1.262207	53.149117
1.2646484	56.399952
1.2670898	58.587
1.2695312	59.722332
1.2719727	59.863308
1.2744141	59.100704
1.2768555	57.547394
1.2792969	55.322956
1.2817383	52.54438
1.2841797	49.320972
1.2866211	45.75017
1.2890625	41.91313
1.2915039	37.875637
1.2939453	33.69925
1.2963867	29.455828
1.2988281	25.237741
1.3012695	21.166834
1.3037109	17.408617
1.3061523	14.18956
1.3085938	11.802195
1.3110352	10.553685
1.3134766	10.57939
1.315918	11.698591
1.3183594	13.584963
1.3208008	15.97542
1.3232422	18.67499
1.3256836	21.485973
1.328125	24.167732
1.3305664	26.44072
1.3330078	28.008938
1.3354492	28.588392
1.3378906	27.937613
1.340332	25.89131
1.3427734	22.386717
1.3452148	17.48204
1.3476562	11.364694
1.3500977	4.3848004
1.3525391	3.4568949
1.3549805	10.963359
1.3574219	18.094807
1.3598633	24.28978
1.3623047	29.118086
1.3647461	32.265934
1.3671875	33.574444
1.3696289	33.07425
1.3720703	31.005009
1.3745117	27.824505
1.3769531	24.20303
1.3793945	20.966879
1.3818359	18.878576
1.3842773	18.1825
1.3867188	18.360546
1.3891602	18.554018
1.3916016	18.08753
1.394043	16.62309
1.3964844	14.113964
1.3989258	10.762039
1.4013672	7.2043195
1.4038086	5.7380757
1.40625	8.9996605
1.4086914	14.641835
1.4111328	21.169743
1.4135742	28.17497
1.4160156	35.446384
1.418457	42.770565
1.4208984	49.8824
1.4233398	56.46571
1.4257812	62.177345
1.4282227	66.6867
1.4306641	69.71697
1.4331055	71.08324
1.4355469	70.7203
1.4379883	68.69006
1.4404297	65.17059
1.4428711	60.42709
1.4453125	54.772644
1.4477539	48.533092
1.4501953	42.021996
1.4526367	35.538834
1.4550781	29.407427
1.4575195	24.071728
1.4599609	20.24742
1.4624023	18.89434
1.4648438	20.492136
1.4672852	24.414898
1.4697266	29.645134
1.472168	35.426125
1.4746094	41.26401
1.4770508	46.800274
1.4794922	51.74126
1.4819336	55.833416
1.484375	58.862286
1.4868164	60.662735
1.4892578	61.13248
1.4916992	60.249912
1.4941406	58.084896
1.496582	54.80678
1.4990234	50.68045
1.5014648	46.05441
1.5039062	41.34246
1.5063477	36.992424
1.5087891	33.438435
1.5112305	31.024849
1.5136719	29.910696
1.5161133	30.01397
1.5185547	31.056677
1.5209961	32.67929
1.5234375	34.53778
1.5258789	36.347054
1.5283203	37.89749
1.5307617	39.068577
1.5332031	39.842716
1.5356445	40.32358
1.5380859	40.74724
1.5405273	41.47473
1.5429688	42.939144
1.5454102	45.528915
1.5478516	49.449387
1.550293	54.632965
1.5527344	60.75706
1.5551758	67.33004
1.5576172	73.78777
1.5600586	79.56365
1.5625	84.13595
1.5649414	87.06129
1.5673828	88.00269
1.5698242	86.75339
1.5722656	83.25597
1.574707	77.61595
1.5771484	70.11029
1.5795898	61.18347
1.5820312	51.431866
1.5844727	41.574444
1.5869141	32.405594
1.5893555	24.702662
1.5917969	18.995989
1.5942383	15.149567
1.5966797	12.190069
1.5991211	9.018134
1.6015625	5.9543433
1.6040039	7.723277
1.6064453	14.934736
1.6088867	24.17163
1.6113281	34.06493
1.6137695	43.67604
1.6162109	52.16256
1.6186523	58.78707
1.6210938	62.974228
1.6235352	64.365265
1.6259766	62.856186
1.628418	58.609486
1.6308594	52.0351
1.6333008	43.74909
1.6357422	34.510662
1.6381836	25.13954
1.640625	16.420467
1.6430664	9.0029125
1.6455078	3.4266772
1.6479492	2.6097417
1.6503906	6.132628
1.652832	10.675504
1.6552734	16.675821
1.6577148	24.147274
1.6601562	32.638233
1.6625977	41.477016
1.6650391	49.92954
1.6674805	57.296844
1.6699219	62.980892
1.6723633	66.53069
1.6748047	67.668816
1.6772461	66.30295
1.6796875	62.523838
1.6821289	56.586273
1.6845703	48.882328
1.6870117	39.905777
1.6894531	30.2178
1.6918945	20.414936
1.6943359	11.116215
1.6967773	3.3254662
1.6992188	5.0980635
1.7016602	10.081377
1.7041016	13.272521
1.706543	14.417553
1.7089844	13.556893
1.7114258	10.959742
1.7138672	7.401927
1.7163086	5.921637
1.71875	10.165674
1.7211914	16.877872
1.7236328	24.087465
1.7260742	31.047955
1.7285156	37.27881
1.730957	42.414104
1.7333984	46.17936
1.7358398	48.38253
1.7382812	48.91441
1.7407227	47.75105
1.7431641	44.955616
1.7456055	40.684822
1.7480469	35.215992
1.7504883	29.024649
1.7529297	23.000935
1.7553711	18.884691
1.7578125	19.012814
1.7602539	23.49644
1.7626953	30.101006
1.7651367	37.05009
1.7675781	43.371277
1.7700195	48.502323
1.7724609	52.103073
1.7749023	53.9871
1.7773438	54.0933
1.7797852	52.467556
1.7822266	49.24405
1.784668	44.62601
1.7871094	38.872437
1.7895508	32.286053
1.7919922	25.218622
1.7944336	18.12161
1.796875	11.800815
1.7993164	8.406665
1.8017578	10.422496
1.8041992	15.036064
1.8066406	19.691837
1.809082	23.580359
1.8115234	26.400496
1.8139648	28.03427
1.8164062	28.483364
1.8188477	27.860336
1.8212891	26.389881
1.8237305	24.408398
1.8261719	22.351513
1.8286133	20.710382
1.8310547	19.903826
1.8334961	20.09016
1.8359375	21.08487
1.8383789	22.50648
1.8408203	23.980341
1.8432617	25.243551
1.8457031	26.16461
1.8481445	26.736288
1.8505859	27.065212
1.8530273	27.360281
1.8554688	27.898438
1.8579102	28.946144
1.8603516	30.64699
1.862793	32.942806
1.8652344	35.59011
1.8676758	38.250443
1.8701172	40.595474
1.8725586	42.387028
1.875	43.51755
1.8774414	44.019863
1.8798828	44.03366
1.8823242	43.745144
1.8847656	43.308243
1.887207	42.77047
1.8896484	42.03666
1.8920898	40.900036
1.8945312	39.12495
1.8969727	36.542274
1.8994141	33.11459
1.9018555	28.983501
1.9042969	24.517126
1.9067383	20.368715
1.9091797	17.49131
1.9116211	16.764303
1.9140625	18.121641
1.9165039	20.546547
1.9189453	23.02668
1.9213867	24.953226
1.9238281	26.05062
1.9262695	26.264269
1.9287109	25.69415
1.9311523	24.56199
1.9335938	23.192726
1.9360352	21.990013
1.9384766	21.37814
1.940918	21.67842
1.9433594	22.9744
1.9458008	25.09465
1.9482422	27.726925
1.9506836	30.541372
1.953125	33.247517
1.9555664	35.60875
1.9580078	37.443142
1.9604492	38.62403
1.9628906	39.084255
1.965332	38.814846
1.9677734	37.861298
1.9702148	36.31303
1.9726562	34.29063
1.9750977	31.922262
1.9775391	29.322565
1.9799805	26.579311
1.9824219	23.754747
1.9848633	20.89745
1.9873047	18.058043
1.9897461	15.30609
1.9921875	12.749392
1.9946289	10.552477
1.9970703	8.937157
1.9995117	8.125647
2.0019531	8.187159
2.0043945	8.962937
2.006836	10.208103
2.0092773	11.720129
2.0117188	13.32637
2.0141602	14.848566
2.0166016	16.100311
2.019043	16.897139
2.0214844	17.080631
2.0239258	16.56587
2.0263672	15.418595
2.0288086	13.931064
2.03125	12.684664
2.0336914	12.465823
2.0361328	13.751871
2.0385742	16.220306
2.0410156	19.115635
2.043457	21.761354
2.0458984	23.689568
2.0483398	24.612972
2.0507812	24.383417
2.0532227	22.97213
2.055664	20.458738
2.0581055	17.016165
2.0605469	12.881615
2.0629883	8.336905
2.0654297	3.8052347
2.067871	2.483025
2.0703125	6.4624496
2.072754	10.615691
2.0751953	14.411313
2.0776367	17.764061
2.0800781	20.657837
2.0825195	23.095066
2.084961	25.078495
2.0874023	26.60737
2.0898438	27.679598
2.0922852	28.295404
2.0947266	28.465578
2.097168	28.225857
2.0996094	27.64777
2.1020508	26.830854
2.1044922	25.875156
2.1069336	24.84622
2.109375	23.751686
2.1118164	22.537155
2.1142578	21.103638
2.1166992	19.340128
2.1191406	17.160805
2.121582	14.536046
2.1240234	11.516626
2.1264648	8.285709
2.1289062	5.4201922
2.1313477	4.7690516
2.133789	7.284292
2.1362305	10.952423
2.1386719	14.759507
2.1411133	18.329092
2.1435547	21.428074
2.145996	23.86818
2.1484375	25.495392
2.150879	26.201159
2.1533203	25.946932
2.1557617	24.793001
2.1582031	22.930906
2.1606445	20.722675
2.163086	18.72775
2.1655273	17.627214
2.1679688	17.890474
2.1704102	19.378939
2.1728516	21.45709
2.175293	23.42685
2.1777344	24.76143
2.1801758	25.137379
2.1826172	24.41795
2.1850586	22.639944
2.1875	20.01733
2.1899414	16.987165
2.1923828	14.322196
2.1948242	13.161923
2.1972656	14.293724
2.199707	17.205305
2.2021484	20.81663
2.2045898	24.332832
2.2070312	27.282076
2.2094727	29.395702
2.211914	30.546831
2.2143555	30.726696
2.2167969	30.038326
2.2192383	28.692585
2.2216797	27.00069
2.224121	25.354065
2.2265625	24.165522
2.229004	23.74788
2.2314453	24.173014
2.2338867	25.240816
2.2363281	26.597105
2.2387695	27.880234
2.241211	28.801477
2.2436523	29.16655
2.2460938	28.87298
2.2485352	27.89731
2.2509766	26.276785
2.253418	24.09258
2.2558594	21.45903
2.2583008	18.515833
2.2607422	15.427396
2.2631836	12.401905
2.265625	9.757841
2.2680664	8.030486
2.2705078	7.8296194
2.2729492	9.115309
2.2753906	11.210269
2.277832	13.56035
2.2802734	15.877166
2.2827148	18.016844
2.2851562	19.91045
2.2875977	21.522522
2.290039	22.819311
2.2924805	23.74872
2.2949219	24.238096
2.2973633	24.20722
2.2998047	23.584995
2.302246	22.330395
2.3046875	20.455542
2.307129	18.04399
2.3095703	15.256328
2.3120117	12.320959
2.3144531	9.519312
2.3168945	7.1747074
2.319336	5.6139984
2.3217773	4.9879265
2.3242188	5.067391
2.3266602	5.5211816
2.3291016	6.275643
2.331543	7.4413233
2.3339844	9.08275
2.3364258	11.117041
2.3388672	13.359619
2.3413086	15.594017
2.34375	17.61537
2.3461914	19.25019
2.3486328	20.36711
2.3510742	20.88123
2.3535156	20.753916
2.355957	19.991556
2.3583984	18.639826
2.3608398	16.779165
2.3632812	14.518498
2.3657227	11.999048
2.368164	9.429814
2.3706055	7.2121124
2.3730469	6.184732
2.3754883	7.1739287
2.3779297	9.721503
2.380371	13.002988
2.3828125	16.586794
2.385254	20.246593
2.3876953	23.816065
2.3901367	27.13948
2.3925781	30.062185
2.3950195	32.436737
2.397461	34.135014
2.3999023	35.060265
2.4023438	35.156807
2.4047852	34.417656
2.4072266	32.88897
2.409668	30.671595
2.4121094	27.922945
2.4145508	24.858715
2.4169922	21.75261
2.4194336	18.925077
2.421875	16.696955
2.4243164	15.276268
2.4267578	14.611165
2.4291992	14.366652
2.4316406	14.088451
2.434082	13.388494
2.4365234	12.033716
2.4389648	9.989485
2.4414062	7.550351
2.4438477	5.906121
2.446289	7.280669
2.4487305	11.268478
2.4511719	16.239378
2.4536133	21.417427
