
X-Axis: Frequency (hz)
Y-Axis: Fourier Amplitude (cm/s)
Number of Data Sets: 4


DATASET #1

Name: FAS H1 (cm/s)
Num Points: 2044
Info: 

X, Y Data:
0.009765625	0.23810922
0.012207031	0.32034734
0.014648438	0.40750387
0.017089844	0.49566153
0.01953125	0.582309
0.021972656	0.66706073
0.024414062	0.7514213
0.026855469	0.8373006
0.029296875	0.9241552
0.03173828	1.0062996
0.034179688	1.0725241
0.036621094	1.1084898
0.0390625	1.1008805
0.041503906	1.0423539
0.043945312	0.93664664
0.04638672	0.80409807
0.048828125	0.68735933
0.05126953	0.6448283
0.053710938	0.70152867
0.056152344	0.81614786
0.05859375	0.9351498
0.061035156	1.0332985
0.06347656	1.1153467
0.06591797	1.2049328
0.068359375	1.3238437
0.07080078	1.4702727
0.07324219	1.6145772
0.075683594	1.7136049
0.078125	1.7287161
0.080566406	1.640394
0.08300781	1.4620436
0.08544922	1.2592819
0.087890625	1.1655042
0.09033203	1.2987581
0.09277344	1.6039504
0.095214844	1.9361352
0.09765625	2.1844857
0.10009766	2.2839553
0.10253906	2.2069497
0.10498047	1.9595131
0.10742188	1.5788124
0.10986328	1.1311266
0.11230469	0.7204724
0.11474609	0.52497923
0.1171875	0.6207683
0.11962891	0.77949214
0.12207031	0.89403725
0.12451172	1.0012544
0.12695312	1.1793168
0.12939453	1.4545234
0.13183594	1.7789006
0.13427734	2.082612
0.13671875	2.3173835
0.13916016	2.4768982
0.14160156	2.603941
0.14404297	2.7767522
0.14648438	3.0634143
0.14892578	3.4701617
0.15136719	3.936038
0.1538086	4.3696756
0.15625	4.6851144
0.1586914	4.82106
0.16113281	4.7488055
0.16357422	4.4748473
0.16601562	4.042114
0.16845703	3.5333452
0.17089844	3.077111
0.17333984	2.8365223
0.17578125	2.926051
0.17822266	3.306023
0.18066406	3.8346055
0.18310547	4.3801737
0.18554688	4.849902
0.18798828	5.177114
0.19042969	5.3107743
0.1928711	5.2141714
0.1953125	4.870172
0.1977539	4.289553
0.20019531	3.5196505
0.20263672	2.654699
0.20507812	1.8610854
0.20751953	1.4223099
0.20996094	1.5134773
0.21240234	1.8061943
0.21484375	1.9688799
0.21728516	1.88027
0.21972656	1.5444878
0.22216797	1.112027
0.22460938	1.087946
0.22705078	1.7639836
0.22949219	2.7000895
0.2319336	3.6331341
0.234375	4.430959
0.2368164	5.0048847
0.23925781	5.296057
0.24169922	5.2765207
0.24414062	4.952164
0.24658203	4.364679
0.24902344	3.592234
0.25146484	2.7540524
0.25390625	2.031085
0.25634766	1.6817613
0.25878906	1.8182815
0.26123047	2.1839364
0.26367188	2.5322049
0.26611328	2.779252
0.2685547	2.9387968
0.2709961	3.0773237
0.2734375	3.2771275
0.2758789	3.5914931
0.2783203	4.0165505
0.28076172	4.503499
0.28320312	4.9905925
0.28564453	5.425057
0.28808594	5.7698627
0.29052734	6.0036306
0.29296875	6.1222644
0.29541016	6.1462054
0.29785156	6.129274
0.30029297	6.154525
0.30273438	6.2996917
0.30517578	6.5795984
0.3076172	6.9140306
0.3100586	7.155639
0.3125	7.1498656
0.3149414	6.784852
0.3173828	6.0180774
0.31982422	4.883881
0.32226562	3.49313
0.32470703	2.0660577
0.32714844	1.2831393
0.32958984	2.0252073
0.33203125	3.1534467
0.33447266	4.1031675
0.33691406	4.7507954
0.33935547	5.0580063
0.34179688	5.0202465
0.34423828	4.658089
0.3466797	4.0180187
0.3491211	3.172548
0.3515625	2.2147262
0.3540039	1.2456393
0.3564453	0.3665471
0.35888672	0.439365
0.36132812	1.0362813
0.36376953	1.5177051
0.36621094	1.9425782
0.36865234	2.3953571
0.37109375	2.9511676
0.37353516	3.6498415
0.37597656	4.4859776
0.37841797	5.4130473
0.38085938	6.3551693
0.38330078	7.2231784
0.3857422	7.933509
0.3881836	8.426724
0.390625	8.682362
0.3930664	8.726859
0.3955078	8.631184
0.39794922	8.493264
0.40039062	8.402762
0.40283203	8.397326
0.40527344	8.437033
0.40771484	8.41757
0.41015625	8.212555
0.41259766	7.719078
0.41503906	6.893922
0.41748047	5.7875743
0.41992188	4.605747
0.42236328	3.834851
0.4248047	4.1039605
0.4272461	5.305224
0.4296875	6.811112
0.4321289	8.19811
0.4345703	9.248034
0.43701172	9.866624
0.43945312	10.058338
0.44189453	9.919147
0.44433594	9.623748
0.44677734	9.386971
0.44921875	9.384274
0.45166016	9.660246
0.45410156	10.107196
0.45654297	10.537457
0.45898438	10.773968
0.46142578	10.70209
0.4638672	10.287276
0.4663086	9.580732
0.46875	8.730239
0.4711914	7.998992
0.4736328	7.747097
0.47607422	8.262775
0.47851562	9.528312
0.48095703	11.263762
0.48339844	13.139002
0.48583984	14.871119
0.48828125	16.23419
0.49072266	17.0581
0.49316406	17.23463
0.49560547	16.727266
0.49804688	15.577683
0.5004883	13.903776
0.5029297	11.883994
0.5053711	9.724223
0.5078125	7.60825
0.5102539	5.6489596
0.5126953	3.9042296
0.5151367	2.6620376
0.5175781	3.0101988
0.52001953	4.979177
0.52246094	7.5711675
0.52490234	10.291759
0.52734375	12.822665
0.52978516	14.913751
0.53222656	16.39907
0.53466797	17.220657
0.5371094	17.435698
0.5395508	17.200645
0.5419922	16.735905
0.5444336	16.281511
0.546875	16.05688
0.5493164	16.23361
0.5517578	16.918705
0.5541992	18.140026
0.5566406	19.837755
0.55908203	21.872135
0.56152344	24.048634
0.56396484	26.148966
0.56640625	27.956997
0.56884766	29.277868
0.57128906	29.951284
0.57373047	29.862827
0.5761719	28.95882
0.5786133	27.271023
0.5810547	24.959206
0.5834961	22.376965
0.5859375	20.141235
0.5883789	19.076437
0.5908203	19.781713
0.5932617	22.088709
0.5957031	25.246243
0.59814453	28.503803
0.60058594	31.377028
0.60302734	33.65722
0.60546875	35.35281
0.60791016	36.612118
0.61035156	37.635426
0.61279297	38.591927
0.6152344	39.566326
0.6176758	40.55075
0.6201172	41.472458
0.6225586	42.230663
0.625	42.720425
0.6274414	42.838654
0.6298828	42.486572
0.6323242	41.579903
0.6347656	40.073143
0.63720703	37.990055
0.63964844	35.44499
0.64208984	32.641487
0.64453125	29.839758
0.64697266	27.29956
0.64941406	25.218002
0.65185547	23.693035
0.6542969	22.72943
0.6567383	22.27358
0.6591797	22.242695
0.6616211	22.53208
0.6640625	23.011765
0.6665039	23.530195
0.6689453	23.93452
0.6713867	24.102482
0.6738281	23.975431
0.67626953	23.576897
0.67871094	23.006563
0.68115234	22.408796
0.68359375	21.928453
0.68603516	21.669767
0.68847656	21.673178
0.69091797	21.912188
0.6933594	22.31144
0.6958008	22.778744
0.6982422	23.243305
0.7006836	23.68557
0.703125	24.147207
0.7055664	24.7109
0.7080078	25.451756
0.7104492	26.385593
0.7128906	27.451
0.71533203	28.54324
0.71777344	29.573273
0.72021484	30.50407
0.72265625	31.337582
0.72509766	32.061413
0.72753906	32.594463
0.72998047	32.76781
0.7324219	32.35783
0.7348633	31.16006
0.7373047	29.07154
0.7397461	26.148895
0.7421875	22.620958
0.7446289	18.852648
0.7470703	15.273273
0.7495117	12.298239
0.7519531	10.316891
0.75439453	9.767738
0.75683594	10.995758
0.75927734	13.842293
0.76171875	17.742956
0.76416016	22.069191
0.76660156	26.254076
0.76904297	29.84081
0.7714844	32.530415
0.7739258	34.214207
0.7763672	34.980522
0.7788086	35.101665
0.78125	35.006203
0.7836914	35.21854
0.7861328	36.22522
0.7885742	38.27272
0.7910156	41.21917
0.79345703	44.570507
0.79589844	47.66979
0.79833984	49.914394
0.80078125	50.926277
0.80322266	50.655273
0.80566406	49.40422
0.80810547	47.745834
0.8105469	46.29683
0.8129883	45.391052
0.8154297	44.856213
0.8178711	44.105095
0.8203125	42.46164
0.8227539	39.464855
0.8251953	35.010483
0.8276367	29.354628
0.8300781	23.0535
0.83251953	16.933132
0.83496094	12.232009
0.83740234	10.635027
0.83984375	12.324052
0.84228516	15.33119
0.84472656	18.285307
0.84716797	20.669035
0.8496094	22.290823
0.8520508	23.082876
0.8544922	23.058702
0.8569336	22.310877
0.859375	20.99862
0.8618164	19.310812
0.8642578	17.415686
0.8666992	15.421133
0.8691406	13.376371
0.87158203	11.332937
0.87402344	9.465212
0.87646484	8.213371
0.87890625	8.195064
0.88134766	9.544742
0.88378906	11.702969
0.88623047	14.053419
0.8886719	16.203651
0.8911133	17.962662
0.8935547	19.305984
0.8959961	20.351816
0.8984375	21.30882
0.9008789	22.382654
0.9033203	23.6633
0.9057617	25.064354
0.9082031	26.361696
0.91064453	27.30125
0.91308594	27.70521
0.91552734	27.53514
0.91796875	26.909594
0.92041016	26.085808
0.92285156	25.40936
0.92529297	25.217539
0.9277344	25.71008
0.9301758	26.851225
0.9326172	28.376476
0.9350586	29.889946
0.9375	30.976835
0.9399414	31.288277
0.9423828	30.598461
0.9448242	28.840824
0.9472656	26.124205
0.94970703	22.72553
0.95214844	19.053696
0.95458984	15.585966
0.95703125	12.765203
0.95947266	10.836378
0.96191406	9.687769
0.96435547	8.934741
0.9667969	8.263661
0.9692383	7.723656
0.9716797	7.7863717
0.9741211	8.9217615
0.9765625	10.945227
0.9790039	13.162958
0.9814453	14.839803
0.9838867	15.387078
0.9863281	14.442286
0.98876953	11.943068
0.99121094	8.217645
0.99365234	4.4127364
0.99609375	4.599712
0.99853516	8.196996
1.0009766	11.255772
1.003418	12.74934
1.0058594	12.458653
1.0083008	10.765334
1.0107422	9.037418
1.0131836	9.869883
1.015625	13.982131
1.0180664	19.569609
1.0205078	25.267427
1.0229492	30.266933
1.0253906	33.974266
1.027832	35.905834
1.0302734	35.705177
1.0327148	33.20736
1.0351562	28.506422
1.0375977	21.985437
1.0400391	14.298439
1.0424805	6.456227
1.0449219	3.8902228
1.0473633	9.995996
1.0498047	15.697897
1.0522461	20.154825
1.0546875	23.444818
1.0571289	25.866545
1.0595703	27.761593
1.0620117	29.369715
1.0644531	30.734179
1.0668945	31.682213
1.0693359	31.882757
1.0717773	30.954882
1.0742188	28.591217
1.0766602	24.657154
1.0791016	19.236712
1.081543	12.616236
1.0839844	5.219056
1.0864258	2.510945
1.0888672	10.11249
1.0913086	17.28741
1.09375	23.780376
1.0961914	29.366165
1.0986328	33.801548
1.1010742	36.83234
1.1035156	38.25246
1.105957	37.986755
1.1083984	36.16255
1.1108398	33.138313
1.1132812	29.470142
1.1157227	25.81271
1.1181641	22.774347
1.1206055	20.762707
1.1230469	19.885542
1.1254883	19.98824
1.1279297	20.787294
1.1303711	21.974562
1.1328125	23.261824
1.1352539	24.4177
1.1376953	25.308937
1.1401367	25.917662
1.1425781	26.314463
1.1450195	26.602497
1.1474609	26.855762
1.1499023	27.079044
1.1523438	27.196524
1.1547852	27.060726
1.1572266	26.478313
1.159668	25.248718
1.1621094	23.216496
1.1645508	20.322025
1.1669922	16.636507
1.1694336	12.363549
1.171875	7.811857
1.1743164	3.3862367
1.1767578	1.4959724
1.1791992	4.6203327
1.1816406	7.166238
1.184082	8.627411
1.1865234	8.797572
1.1889648	7.5362253
1.1914062	4.792329
1.1938477	0.73394716
1.1962891	4.8013363
1.1987305	11.063233
1.2011719	17.800175
1.2036133	24.55004
1.2060547	30.86309
1.2084961	36.331326
1.2109375	40.604908
1.2133789	43.398235
1.2158203	44.502415
1.2182617	43.8081
1.2207031	41.34325
1.2231445	37.312725
1.2255859	32.129322
1.2280273	26.444994
1.2304688	21.187546
1.2329102	17.524048
1.2353516	16.306343
1.237793	17.037613
1.2402344	18.247091
1.2426758	18.746666
1.2451172	17.940405
1.2475586	15.665998
1.25	12.059407
1.2524414	7.4742074
1.2548828	2.5147116
1.2573242	3.149704
1.2597656	7.7078614
1.262207	11.508748
1.2646484	14.226375
1.2670898	15.778393
1.2695312	16.258663
1.2719727	15.909552
1.2744141	15.070233
1.2768555	14.079682
1.2792969	13.141266
1.2817383	12.22704
1.2841797	11.123994
1.2866211	9.612178
1.2890625	7.6787753
1.2915039	5.861375
1.2939453	5.784002
1.2963867	8.312437
1.2988281	12.075555
1.3012695	15.998131
1.3037109	19.496708
1.3061523	22.201908
1.3085938	23.896425
1.3110352	24.51035
1.3134766	24.115995
1.315918	22.911785
1.3183594	21.185183
1.3208008	19.258448
1.3232422	17.423548
1.3256836	15.867113
1.328125	14.602775
1.3305664	13.472242
1.3330078	12.247736
1.3354492	10.771719
1.3378906	9.070116
1.340332	7.4651337
1.3427734	6.7019663
1.3452148	7.508691
1.3476562	9.584374
1.3500977	12.121923
1.3525391	14.5451
1.3549805	16.500065
1.3574219	17.76616
1.3598633	18.226656
1.3623047	17.866814
1.3647461	16.782291
1.3671875	15.213627
1.3696289	13.615343
1.3720703	12.704307
1.3745117	13.217802
1.3769531	15.306633
1.3793945	18.468811
1.3818359	22.095247
1.3842773	25.74628
1.3867188	29.156816
1.3891602	32.19759
1.3916016	34.841747
1.394043	37.134266
1.3964844	39.15613
1.3989258	40.985474
1.4013672	42.65862
1.4038086	44.14226
1.40625	45.32597
1.4086914	46.03804
1.4111328	46.07435
1.4135742	45.233223
1.4160156	43.3464
1.418457	40.30304
1.4208984	36.06812
1.4233398	30.69446
1.4257812	24.333567
1.4282227	17.26398
1.4306641	10.067138
1.4331055	5.4100275
1.4355469	9.430157
1.4379883	16.2944
1.4404297	22.915756
1.4428711	28.669523
1.4453125	33.278477
1.4477539	36.60548
1.4501953	38.62145
1.4526367	39.39222
1.4550781	39.063396
1.4575195	37.834225
1.4599609	35.926083
1.4624023	33.549362
1.4648438	30.875462
1.4672852	28.0243
1.4697266	25.07528
1.472168	22.108267
1.4746094	19.266367
1.4770508	16.829521
1.4794922	15.243988
1.4819336	14.963703
1.484375	16.063154
1.4868164	18.104755
1.4892578	20.466974
1.4916992	22.621384
1.4941406	24.19097
1.496582	24.934849
1.4990234	24.731056
1.5014648	23.573545
1.5039062	21.57832
1.5063477	19.007553
1.5087891	16.3236
1.5112305	14.257055
1.5136719	13.684896
1.5161133	14.978352
1.5185547	17.60567
1.5209961	20.758636
1.5234375	23.853394
1.5258789	26.551657
1.5283203	28.677511
1.5307617	30.158754
1.5332031	30.985336
1.5356445	31.179735
1.5380859	30.774265
1.5405273	29.799273
1.5429688	28.286705
1.5454102	26.286318
1.5478516	23.898731
1.550293	21.330097
1.5527344	18.958569
1.5551758	17.359104
1.5576172	17.115053
1.5600586	18.359522
1.5625	20.601894
1.5649414	23.109507
1.5673828	25.260912
1.5698242	26.637619
1.5722656	27.02157
1.574707	26.382149
1.5771484	24.872978
1.5795898	22.82238
1.5820312	20.70932
1.5844727	19.07687
1.5869141	18.323486
1.5893555	18.459772
1.5917969	19.11293
1.5942383	19.814625
1.5966797	20.262323
1.5991211	20.41695
1.6015625	20.48597
1.6040039	20.817997
1.6064453	21.711065
1.6088867	23.216942
1.6113281	25.10147
1.6137695	26.981361
1.6162109	28.503925
1.6186523	29.474533
1.6210938	29.928137
1.6235352	30.155005
1.6259766	30.654472
1.628418	31.963741
1.6308594	34.391663
1.6333008	37.842995
1.6357422	41.875324
1.6381836	45.89699
1.640625	49.332874
1.6430664	51.7131
1.6455078	52.701733
1.6479492	52.102905
1.6503906	49.859238
1.652832	46.042377
1.6552734	40.828747
1.6577148	34.47117
1.6601562	27.272486
1.6625977	19.564747
1.6650391	11.686236
1.6674805	3.9595504
1.6699219	3.3261387
1.6723633	9.908218
1.6748047	15.575399
1.6772461	20.163519
1.6796875	23.571451
1.6821289	25.768888
1.6845703	26.80394
1.6870117	26.811808
1.6894531	26.01372
1.6918945	24.701447
1.6943359	23.201746
1.6967773	21.814713
1.6992188	20.727852
1.7016602	19.941847
1.7041016	19.28675
1.706543	18.534904
1.7089844	17.548601
1.7114258	16.413387
1.7138672	15.542169
1.7163086	15.641727
1.71875	17.292845
1.7211914	20.42375
1.7236328	24.425072
1.7260742	28.587656
1.7285156	32.302982
1.730957	35.09869
1.7333984	36.638138
1.7358398	36.731075
1.7382812	35.349762
1.7407227	32.647377
1.7431641	28.987331
1.7456055	25.008238
1.7480469	21.719845
1.7504883	20.39411
1.7529297	21.741127
1.7553711	25.159784
1.7578125	29.466011
1.7602539	33.73561
1.7626953	37.428204
1.7651367	40.2845
1.7675781	42.238796
1.7700195	43.35991
1.7724609	43.806774
1.7749023	43.792587
1.7773438	43.549377
1.7797852	43.28615
1.7822266	43.153255
1.784668	43.218998
1.7871094	43.4696
1.7895508	43.821106
1.7919922	44.13975
1.7944336	44.26115
1.796875	44.014038
1.7993164	43.246696
1.8017578	41.85235
1.8041992	39.7844
1.8066406	37.064037
1.809082	33.78849
1.8115234	30.14399
1.8139648	26.422293
1.8164062	23.030695
1.8188477	20.465635
1.8212891	19.176338
1.8237305	19.296019
1.8261719	20.507973
1.8286133	22.27015
1.8310547	24.099218
1.8334961	25.66734
1.8359375	26.778406
1.8383789	27.325901
1.8408203	27.25684
1.8432617	26.546122
1.8457031	25.179081
1.8481445	23.147871
1.8505859	20.458786
1.8530273	17.142912
1.8554688	13.266183
1.8579102	8.945741
1.8603516	4.453934
1.862793	2.3545887
1.8652344	6.4222436
1.8676758	11.123501
1.8701172	15.573721
1.8725586	19.526226
1.875	22.80496
1.8774414	25.278112
1.8798828	26.859257
1.8823242	27.507364
1.8847656	27.224178
1.887207	26.057842
1.8896484	24.100988
1.8920898	21.478691
1.8945312	18.33351
1.8969727	14.818896
1.8994141	11.104514
1.9018555	7.402035
1.9042969	4.1723833
1.9067383	3.3461037
1.9091797	5.8365536
1.9116211	9.098535
1.9140625	12.40248
1.9165039	15.620941
1.9189453	18.72313
1.9213867	21.683575
1.9238281	24.45817
1.9262695	26.981546
1.9287109	29.167612
1.9311523	30.910479
1.9335938	32.097668
1.9360352	32.636524
1.9384766	32.479393
1.940918	31.635725
1.9433594	30.17691
1.9458008	28.243065
1.9482422	26.043764
1.9506836	23.838154
1.953125	21.884035
1.9555664	20.365494
1.9580078	19.322285
1.9604492	18.629053
1.9628906	18.04739
1.965332	17.319801
1.9677734	16.245754
1.9702148	14.719198
1.9726562	12.735743
1.9750977	10.379766
1.9775391	7.837687
1.9799805	5.521116
1.9824219	4.4294543
1.9848633	5.483996
1.9873047	7.7279773
1.9897461	10.203308
1.9921875	12.551353
1.9946289	14.625915
1.9970703	16.359247
1.9995117	17.725487
2.0019531	18.722303
2.0043945	19.353142
2.006836	19.61599
2.0092773	19.497627
2.0117188	18.979494
2.0141602	18.049458
2.0166016	16.712994
2.019043	14.998011
2.0214844	12.958183
2.0239258	10.68413
2.0263672	8.319572
2.0288086	6.079599
2.03125	4.3039646
2.0336914	3.5138054
2.0361328	3.8734038
2.0385742	4.739791
2.0410156	5.62369
2.043457	6.4529586
2.0458984	7.3736525
2.0483398	8.583129
2.0507812	10.19126
2.0532227	12.15993
2.055664	14.343893
2.0581055	16.554897
2.0605469	18.601896
2.0629883	20.313158
2.0654297	21.562279
2.067871	22.288683
2.0703125	22.496164
2.072754	22.240639
2.0751953	21.615149
2.0776367	20.741423
2.0800781	19.741383
2.0825195	18.698729
2.084961	17.632742
2.0874023	16.509912
2.0898438	15.295798
2.0922852	14.019948
2.0947266	12.838974
2.097168	12.067356
2.0996094	12.089605
2.1020508	13.088082
2.1044922	14.857096
2.1069336	16.962276
2.109375	18.970922
2.1118164	20.542284
2.1142578	21.44533
2.1166992	21.56412
2.1191406	20.898058
2.121582	19.547396
2.1240234	17.692175
2.1264648	15.561293
2.1289062	13.388355
2.1313477	11.34341
2.133789	9.464565
2.1362305	7.639279
2.1386719	5.6903033
2.1411133	3.6352668
2.1435547	2.7933176
2.145996	5.1776047
2.1484375	8.980198
2.150879	13.213331
2.1533203	17.460915
2.1557617	21.387386
2.1582031	24.697039
2.1606445	27.151733
2.163086	28.588919
2.1655273	28.932108
2.1679688	28.195545
2.1704102	26.483759
2.1728516	23.98257
2.175293	20.944897
2.1777344	17.679392
2.1801758	14.550031
2.1826172	11.981046
2.1850586	10.403327
2.1875	10.022298
2.1899414	10.588251
2.1923828	11.613597
2.1948242	12.726867
2.1972656	13.750957
2.199707	14.639924
2.2021484	15.413821
2.2045898	16.115557
2.2070312	16.786915
2.2094727	17.45836
2.211914	18.14356
2.2143555	18.839918
2.2167969	19.527508
2.2192383	20.17184
2.2216797	20.72344
2.224121	21.119305
2.2265625	21.287573
2.229004	21.15045
2.2314453	20.631128
2.2338867	19.660418
2.2363281	18.188593
2.2387695	16.197197
2.241211	13.707139
2.2436523	10.786277
2.2460938	7.5761847
2.2485352	4.4326315
2.2509766	2.9289804
2.253418	5.00146
2.2558594	8.038578
2.2583008	10.887655
2.2607422	13.235051
2.2631836	14.924691
2.265625	15.877268
2.2680664	16.072563
2.2705078	15.541058
2.2729492	14.363748
2.2753906	12.66875
2.277832	10.614155
2.2802734	8.369585
2.2827148	6.1019855
2.2851562	3.973054
2.2875977	2.1288552
2.290039	0.71569556
2.2924805	0.5451715
2.2949219	1.0552182
2.2973633	1.207827
2.2998047	1.1275223
2.302246	1.2825574
2.3046875	2.0432267
2.307129	3.199271
2.3095703	4.5224714
2.3120117	5.861243
2.3144531	7.0930867
2.3168945	8.11801
2.319336	8.862631
2.3217773	9.281084
2.3242188	9.357037
2.3266602	9.111522
2.3291016	8.616015
2.331543	8.004727
2.3339844	7.481695
2.3364258	7.2906566
2.3388672	7.6061215
2.3413086	8.408993
2.34375	9.510174
2.3461914	10.673718
2.3486328	11.691642
2.3510742	12.400522
2.3535156	12.677619
2.355957	12.437657
2.3583984	11.631799
2.3608398	10.247435
2.3632812	8.308905
2.3657227	5.8769355
2.368164	3.049867
2.3706055	0.04346347
2.3730469	3.2301822
2.3754883	6.347509
2.3779297	9.211226
2.380371	11.647969
2.3828125	13.505626
2.385254	14.67095
2.3876953	15.084135
2.3901367	14.748471
2.3925781	13.73685
2.3950195	12.198316
2.397461	10.371293
2.3999023	8.611525
2.4023438	7.403012
2.4047852	7.1824903
2.4072266	7.9119315
2.409668	9.120978
2.4121094	10.381386
2.4145508	11.463732
2.4169922	12.28078
2.4194336	12.820937
2.421875	13.102741
2.4243164	13.145183
2.4267578	12.953044
2.4291992	12.515586
2.4316406	11.81563
2.434082	10.846645
2.4365234	9.632791
2.4389648	8.249421
2.4414062	6.849649
2.4438477	5.6986012
2.446289	5.1604304
