
X-Axis: Frequency (hz)
Y-Axis: Fourier Amplitude (cm/s)
Number of Data Sets: 4


DATASET #1

Name: FAS H1 (cm/s)
Num Points: 2044
Info: 

X, Y Data:
0.009765625	0.13495995
0.012207031	0.2249423
0.014648438	0.34702381
0.017089844	0.50301003
0.01953125	0.6916654
0.021972656	0.9070943
0.024414062	1.1389192
0.026855469	1.3720235
0.029296875	1.5876054
0.03173828	1.7655519
0.034179688	1.8869953
0.036621094	1.9365116
0.0390625	1.9036579
0.041503906	1.7833287
0.043945312	1.5741014
0.04638672	1.2775129
0.048828125	0.89852226
0.05126953	0.46939102
0.053710938	0.39866766
0.056152344	1.0000402
0.05859375	1.793693
0.061035156	2.7113993
0.06347656	3.7337244
0.06591797	4.836707
0.068359375	5.987183
0.07080078	7.144958
0.07324219	8.266707
0.075683594	9.311557
0.078125	10.247013
0.080566406	11.053124
0.08300781	11.723129
0.08544922	12.262199
0.087890625	12.681587
0.09033203	12.991714
0.09277344	13.197656
0.095214844	13.295143
0.09765625	13.272307
0.10009766	13.114326
0.10253906	12.808049
0.10498047	12.34856
0.10742188	11.743164
0.10986328	11.01396
0.11230469	10.200495
0.11474609	9.3603525
0.1171875	8.567559
0.11962891	7.906646
0.12207031	7.4607034
0.12451172	7.289086
0.12695312	7.4034605
0.12939453	7.762732
0.13183594	8.287191
0.13427734	8.876559
0.13671875	9.423471
0.13916016	9.821007
0.14160156	9.973307
0.14404297	9.813265
0.14648438	9.317322
0.14892578	8.516139
0.15136719	7.496709
0.1538086	6.391135
0.15625	5.368122
0.1586914	4.6323624
0.16113281	4.3917303
0.16357422	4.7234383
0.16601562	5.475914
0.16845703	6.3854856
0.17089844	7.204844
0.17333984	7.746504
0.17578125	7.910412
0.17822266	7.7175145
0.18066406	7.331256
0.18310547	7.0298657
0.18554688	7.06597
0.18798828	7.458132
0.19042969	7.969106
0.1928711	8.2992525
0.1953125	8.243016
0.1977539	7.7348723
0.20019531	6.84452
0.20263672	5.7702374
0.20507812	4.8613405
0.20751953	4.588091
0.20996094	5.1571383
0.21240234	6.2200637
0.21484375	7.290809
0.21728516	8.019852
0.21972656	8.208153
0.22216797	7.823051
0.22460938	7.056954
0.22705078	6.394865
0.22949219	6.475395
0.2319336	7.4668336
0.234375	8.866344
0.2368164	10.09196
0.23925781	10.78719
0.24169922	10.834184
0.24414062	10.336001
0.24658203	9.602386
0.24902344	9.0757
0.25146484	9.084456
0.25390625	9.545774
0.25634766	10.030361
0.25878906	10.094865
0.26123047	9.487055
0.26367188	8.205582
0.26611328	6.5382996
0.2685547	5.1706934
0.2709961	5.0788727
0.2734375	6.280287
0.2758789	7.8227773
0.2783203	9.076771
0.28076172	9.803632
0.28320312	9.954921
0.28564453	9.551262
0.28808594	8.604787
0.29052734	7.086663
0.29296875	4.95318
0.29541016	2.2147806
0.29785156	1.0322635
0.30029297	4.4696393
0.30273438	7.756417
0.30517578	10.445702
0.3076172	12.125729
0.3100586	12.490658
0.3125	11.405617
0.3149414	8.954295
0.3173828	5.5061607
0.31982422	2.5910811
0.32226562	5.000937
0.32470703	9.063379
0.32714844	12.540328
0.32958984	14.870102
0.33203125	15.810163
0.33447266	15.387784
0.33691406	13.925681
0.33935547	12.062391
0.34179688	10.66286
0.34423828	10.350266
0.3466797	10.868768
0.3491211	11.397306
0.3515625	11.340238
0.3540039	10.602168
0.3564453	9.57779
0.35888672	8.989428
0.36132812	9.281414
0.36376953	10.021886
0.36621094	10.332664
0.36865234	9.533184
0.37109375	7.3259664
0.37353516	3.8258498
0.37597656	1.7903576
0.37841797	6.448768
0.38085938	11.347721
0.38330078	15.348114
0.3857422	17.76775
0.3881836	18.149822
0.390625	16.348969
0.3930664	12.596603
0.3955078	7.4973006
0.39794922	1.9417889
0.40039062	3.0899034
0.40283203	6.6960063
0.40527344	8.355512
0.40771484	8.081957
0.41015625	6.728065
0.41259766	6.446041
0.41503906	8.758225
0.41748047	12.130836
0.41992188	15.062922
0.42236328	16.83595
0.4248047	17.13094
0.4272461	15.890723
0.4296875	13.367588
0.4321289	10.347678
0.4345703	8.41666
0.43701172	8.770012
0.43945312	9.878745
0.44189453	9.637042
0.44433594	7.099719
0.44677734	2.5700626
0.44921875	4.8468738
0.45166016	11.643622
0.45410156	17.686314
0.45654297	21.773804
0.45898438	23.268507
0.46142578	22.148401
0.4638672	18.970598
0.4663086	14.720021
0.46875	10.554507
0.4711914	7.392537
0.4736328	5.2913165
0.47607422	3.366977
0.47851562	0.87766844
0.48095703	2.1592004
0.48339844	5.219943
0.48583984	7.6574426
0.48828125	8.922847
0.49072266	8.656656
0.49316406	6.8142333
0.49560547	4.5223355
0.49804688	6.4786186
0.5004883	12.045005
0.5029297	17.601189
0.5053711	21.184927
0.5078125	21.495682
0.5102539	18.184488
0.5126953	12.459885
0.5151367	8.887533
0.5175781	12.533005
0.52001953	17.451279
0.52246094	19.49884
0.52490234	17.858402
0.52734375	13.286961
0.52978516	7.631881
0.53222656	5.0178757
0.53466797	8.401406
0.5371094	12.444316
0.5395508	15.334824
0.5419922	16.476873
0.5444336	15.520885
0.546875	12.88062
0.5493164	10.784319
0.5517578	12.675948
0.5541992	17.488216
0.5566406	22.018782
0.55908203	24.61016
0.56152344	24.761984
0.56396484	22.690868
0.56640625	19.064674
0.56884766	14.875782
0.57128906	11.487932
0.57373047	10.327765
0.5761719	11.123926
0.5786133	11.856127
0.5810547	10.951248
0.5834961	7.8512487
0.5859375	3.3682795
0.5883789	5.11011
0.5908203	10.790383
0.5932617	14.956129
0.5957031	16.333244
0.59814453	14.676058
0.60058594	10.740108
0.60302734	6.501173
0.60546875	5.867608
0.60791016	8.349575
0.61035156	9.905398
0.61279297	9.476719
0.6152344	7.331573
0.6176758	4.2944026
0.6201172	1.3805922
0.6225586	0.9638767
0.625	1.8557874
0.6274414	1.8832375
0.6298828	1.7681619
0.6323242	2.0716002
0.6347656	2.4125001
0.63720703	2.5015843
0.63964844	2.5168092
0.64208984	2.7748988
0.64453125	3.2749047
0.64697266	3.7091029
0.64941406	3.7316146
0.65185547	3.0876524
0.6542969	1.7424769
0.6567383	0.72573304
0.6591797	2.6137428
0.6616211	4.6358185
0.6640625	6.2729325
0.6665039	7.333844
0.6689453	7.6935782
0.6713867	7.276636
0.6738281	6.1403236
0.67626953	4.592733
0.67871094	3.4043338
0.68115234	3.612557
0.68359375	4.6563783
0.68603516	5.3509355
0.68847656	5.2443514
0.69091797	4.486444
0.6933594	3.8353522
0.6958008	4.2930126
0.6982422	5.6073236
0.7006836	6.766902
0.703125	7.0654287
0.7055664	6.2084727
0.7080078	4.7098565
0.7104492	4.802344
0.7128906	7.256529
0.71533203	9.6743555
0.71777344	10.61399
0.72021484	9.734632
0.72265625	7.5664515
0.72509766	5.2211576
0.72753906	3.7168202
0.72998047	3.0733206
0.7324219	3.1999004
0.7348633	4.449702
0.7373047	5.9572735
0.7397461	6.8208632
0.7421875	7.176571
0.7446289	8.087412
0.7470703	9.950714
0.7495117	11.739384
0.7519531	12.345626
0.75439453	11.376673
0.75683594	9.241039
0.75927734	6.8865795
0.76171875	4.9812775
0.76416016	3.2379746
0.76660156	3.2424994
0.76904297	7.699151
0.7714844	13.784589
0.7739258	19.764084
0.7763672	24.559443
0.7788086	27.65081
0.78125	28.982925
0.7836914	28.7674
0.7861328	27.35272
0.7885742	25.199587
0.7910156	22.608757
0.79345703	19.378334
0.79589844	15.194858
0.79833984	10.848918
0.80078125	9.529993
0.80322266	12.572553
0.80566406	16.320967
0.80810547	18.720387
0.8105469	19.530943
0.8129883	19.241251
0.8154297	18.514223
0.8178711	17.896439
0.8203125	17.432737
0.8227539	16.491896
0.8251953	14.362823
0.8276367	11.08808
0.8300781	7.9690228
0.83251953	7.3609962
0.83496094	9.011535
0.83740234	10.46417
0.83984375	10.941483
0.84228516	10.925295
0.84472656	11.141128
0.84716797	11.659246
0.8496094	11.821229
0.8520508	10.957472
0.8544922	8.861848
0.8569336	5.973652
0.859375	4.30728
0.8618164	6.8356843
0.8642578	11.181337
0.8666992	15.544295
0.8691406	19.304785
0.87158203	22.236261
0.87402344	24.427391
0.87646484	26.117506
0.87890625	27.357697
0.88134766	27.897017
0.88378906	27.3772
0.88623047	25.599028
0.8886719	22.718292
0.8911133	19.257793
0.8935547	15.964381
0.8959961	13.52314
0.8984375	12.264692
0.9008789	12.188234
0.9033203	13.082496
0.9057617	14.515789
0.9082031	16.04318
0.91064453	17.456902
0.91308594	18.7496
0.91552734	19.957273
0.91796875	21.081589
0.92041016	22.047922
0.92285156	22.614025
0.92529297	22.400463
0.9277344	21.170675
0.9301758	19.070286
0.9326172	16.576931
0.9350586	14.208913
0.9375	12.232736
0.9399414	10.657068
0.9423828	9.4015045
0.9448242	8.338146
0.9472656	7.2536035
0.94970703	5.914277
0.95214844	4.243697
0.95458984	2.4582846
0.95703125	1.0783333
0.95947266	1.1762792
0.96191406	2.0789351
0.96435547	2.9236782
0.9667969	3.3929472
0.9692383	3.285288
0.9716797	3.0709116
0.9741211	3.9243162
0.9765625	5.741883
0.9790039	7.631527
0.9814453	9.239041
0.9838867	10.54362
0.9863281	11.419039
0.98876953	11.517699
0.99121094	10.482064
0.99365234	8.23442
0.99609375	5.0902243
0.99853516	1.6416665
1.0009766	2.170181
1.003418	5.367145
1.0058594	8.34179
1.0083008	11.021193
1.0107422	13.214793
1.0131836	14.69315
1.015625	15.343039
1.0180664	15.235201
1.0205078	14.682467
1.0229492	14.213478
1.0253906	14.3922
1.027832	15.376787
1.0302734	16.755623
1.0327148	18.011288
1.0351562	18.83518
1.0375977	19.101341
1.0400391	18.727596
1.0424805	17.699547
1.0449219	16.312073
1.0473633	15.262236
1.0498047	15.388979
1.0522461	17.033531
1.0546875	19.776897
1.0571289	22.85304
1.0595703	25.466734
1.0620117	26.94427
1.0644531	26.867807
1.0668945	25.24539
1.0693359	22.520456
1.0717773	19.398111
1.0742188	16.638138
1.0766602	14.838065
1.0791016	14.245378
1.081543	14.527424
1.0839844	14.90127
1.0864258	14.653305
1.0888672	13.477303
1.0913086	11.496285
1.09375	9.135622
1.0961914	6.9767537
1.0986328	5.5009027
1.1010742	4.7715297
1.1035156	4.4186864
1.105957	4.1443605
1.1083984	3.9878485
1.1108398	4.092886
1.1132812	4.4420724
1.1157227	4.821918
1.1181641	4.9596643
1.1206055	4.700501
1.1230469	4.154252
1.1254883	3.7865677
1.1279297	4.0471296
1.1303711	4.6908402
1.1328125	5.234333
1.1352539	5.4447207
1.1376953	5.2782373
1.1401367	4.7646194
1.1425781	3.9230487
1.1450195	2.7727911
1.1474609	1.3978622
1.1499023	0.1191588
1.1523438	1.3884642
1.1547852	2.3718402
1.1572266	2.867039
1.159668	2.8595502
1.1621094	2.4981017
1.1645508	2.1323972
1.1669922	2.2912729
1.1694336	3.1305692
1.171875	4.29584
1.1743164	5.461008
1.1767578	6.425678
1.1791992	7.12769
1.1816406	7.6547503
1.184082	8.2244425
1.1865234	9.113218
1.1889648	10.475655
1.1914062	12.159975
1.1938477	13.752012
1.1962891	14.792413
1.1987305	14.959061
1.2011719	14.161811
1.2036133	12.522235
1.2060547	10.307676
1.2084961	7.9715858
1.2109375	6.3807826
1.2133789	6.626858
1.2158203	8.513006
1.2182617	10.92289
1.2207031	13.107284
1.2231445	14.688388
1.2255859	15.475727
1.2280273	15.428011
1.2304688	14.662632
1.2329102	13.388802
1.2353516	11.923317
1.237793	10.644128
1.2402344	9.741269
1.2426758	9.107368
1.2451172	8.404836
1.2475586	7.2450213
1.25	5.5230584
1.2524414	3.9217894
1.2548828	4.627493
1.2573242	7.625147
1.2597656	11.23917
1.262207	14.814461
1.2646484	18.032919
1.2670898	20.651403
1.2695312	22.405834
1.2719727	23.039337
1.2744141	22.37592
1.2768555	20.314747
1.2792969	16.859818
1.2817383	12.186466
1.2841797	6.6221395
1.2866211	0.687571
1.2890625	5.411841
1.2915039	10.890248
1.2939453	15.539268
1.2963867	19.122877
1.2988281	21.534056
1.3012695	22.772238
1.3037109	22.899029
1.3061523	22.037827
1.3085938	20.340796
1.3110352	17.947021
1.3134766	14.983471
1.315918	11.583374
1.3183594	7.9029055
1.3208008	4.1562614
1.3232422	1.3936206
1.3256836	3.707541
1.328125	6.6324778
1.3305664	8.952988
1.3330078	10.475154
1.3354492	11.182825
1.3378906	11.15477
1.340332	10.54188
1.3427734	9.567895
1.3452148	8.44165
1.3476562	7.3449726
1.3500977	6.441179
1.3525391	5.842905
1.3549805	5.61514
1.3574219	5.732522
1.3598633	6.0741944
1.3623047	6.45759
1.3647461	6.6832104
1.3671875	6.595024
1.3696289	6.1152406
1.3720703	5.382994
1.3745117	4.90237
1.3769531	5.3659143
1.3793945	6.9054074
1.3818359	9.000845
1.3842773	11.209563
1.3867188	13.283814
1.3891602	15.057482
1.3916016	16.465986
1.394043	17.518488
1.3964844	18.288942
1.3989258	18.924612
1.4013672	19.576693
1.4038086	20.346275
1.40625	21.236874
1.4086914	22.117773
1.4111328	22.746666
1.4135742	22.836842
1.4160156	22.176035
1.418457	20.714415
1.4208984	18.603863
1.4233398	16.215317
1.4257812	14.056625
1.4282227	12.60555
1.4306641	12.017911
1.4331055	11.980129
1.4355469	12.034653
1.4379883	11.89935
1.4404297	11.525105
1.4428711	10.980835
1.4453125	10.330203
1.4477539	9.536405
1.4501953	8.499458
1.4526367	7.1062183
1.4550781	5.2789564
1.4575195	3.1563885
1.4599609	1.7996994
1.4624023	3.5303707
1.4648438	6.0631523
1.4672852	8.294512
1.4697266	9.847664
1.472168	10.507685
1.4746094	10.236919
1.4770508	9.147427
1.4794922	7.5107327
1.4819336	5.6568284
1.484375	3.9156144
1.4868164	2.659971
1.4892578	2.7188375
1.4916992	4.385867
1.4941406	6.8554516
1.496582	9.51705
1.4990234	11.874894
1.5014648	13.48318
1.5039062	14.012615
1.5063477	13.431016
1.5087891	12.073203
1.5112305	10.67418
1.5136719	10.223209
1.5161133	11.113869
1.5185547	12.692713
1.5209961	14.131061
1.5234375	14.910556
1.5258789	14.856689
1.5283203	14.015634
1.5307617	12.514912
1.5332031	10.559481
1.5356445	8.382493
1.5380859	6.2414436
1.5405273	4.592708
1.5429688	4.2914577
1.5454102	5.5982537
1.5478516	7.5667825
1.550293	9.399055
1.5527344	10.655319
1.5551758	11.121738
1.5576172	10.818593
1.5600586	9.990948
1.5625	9.005353
1.5649414	8.159821
1.5673828	7.5262303
1.5698242	7.0081644
1.5722656	6.5623565
1.574707	6.3635945
1.5771484	6.622581
1.5795898	7.2596884
1.5820312	7.9770026
1.5844727	8.551792
1.5869141	8.972565
1.5893555	9.408545
1.5917969	10.028715
1.5942383	10.91912
1.5966797	12.134356
1.5991211	13.816904
1.6015625	16.10456
1.6040039	18.897312
1.6064453	21.85931
1.6088867	24.50744
1.6113281	26.435867
1.6137695	27.424986
1.6162109	27.43086
1.6186523	26.605204
1.6210938	25.209103
1.6235352	23.575037
1.6259766	22.084766
1.628418	21.061157
1.6308594	20.60292
1.6333008	20.508821
1.6357422	20.44276
1.6381836	20.144407
1.640625	19.571032
1.6430664	18.773756
1.6455078	17.712793
1.6479492	16.231026
1.6503906	14.130482
1.652832	11.475502
1.6552734	8.900552
1.6577148	7.8361344
1.6601562	9.308015
1.6625977	12.133283
1.6650391	15.012635
1.6674805	17.366795
1.6699219	18.981861
1.6723633	19.836332
1.6748047	19.963886
1.6772461	19.403883
1.6796875	18.209288
1.6821289	16.429424
1.6845703	14.153995
1.6870117	11.574089
1.6894531	8.998743
1.6918945	6.8835664
1.6943359	5.704694
1.6967773	5.512889
1.6992188	5.777006
1.7016602	5.986706
1.7041016	5.95897
1.706543	5.7157674
1.7089844	5.358224
1.7114258	4.9811296
1.7138672	4.655039
1.7163086	4.424802
1.71875	4.2854667
1.7211914	4.1832757
1.7236328	4.0335374
1.7260742	3.7623014
1.7285156	3.352803
1.730957	2.862493
1.7333984	2.4130332
1.7358398	2.124432
1.7382812	2.0330663
1.7407227	2.0729854
1.7431641	2.1262426
1.7456055	2.095716
1.7480469	1.9619087
1.7504883	1.7452835
1.7529297	1.4988116
1.7553711	1.3466961
1.7578125	1.4430151
1.7602539	1.865572
1.7626953	2.5764692
1.7651367	3.5002613
1.7675781	4.5533423
1.7700195	5.6450725
1.7724609	6.653481
1.7749023	7.431759
1.7773438	7.826931
1.7797852	7.713311
1.7822266	7.040085
1.784668	5.8460474
1.7871094	4.265597
1.7895508	2.556847
1.7919922	1.5705037
1.7944336	2.678843
1.796875	4.4740458
1.7993164	6.2199597
1.8017578	7.6987066
1.8041992	8.763456
1.8066406	9.309842
1.809082	9.273315
1.8115234	8.643339
1.8139648	7.4819903
1.8164062	5.932122
1.8188477	4.3043876
1.8212891	3.2756898
1.8237305	3.6153026
1.8261719	4.79893
1.8286133	5.973779
1.8310547	6.7728662
1.8334961	7.0682507
1.8359375	6.8596716
1.8383789	6.2074757
1.8408203	5.2373037
1.8432617	4.155443
1.8457031	3.27272
1.8481445	3.0256536
1.8505859	3.5440912
1.8530273	4.4740195
1.8554688	5.4837494
1.8579102	6.4177547
1.8603516	7.2012134
1.862793	7.7806587
1.8652344	8.118592
1.8676758	8.169693
1.8701172	7.9137816
1.8725586	7.377308
1.875	6.624586
1.8774414	5.7607617
1.8798828	4.9083824
1.8823242	4.1838126
1.8847656	3.6775975
1.887207	3.4357512
1.8896484	3.4486911
1.8920898	3.647047
1.8945312	3.9501872
1.8969727	4.299085
1.8994141	4.628184
1.9018555	4.904366
1.9042969	5.13284
1.9067383	5.3118615
1.9091797	5.454121
1.9116211	5.5567455
1.9140625	5.603425
1.9165039	5.6219196
1.9189453	5.694483
1.9213867	5.9282064
1.9238281	6.4034476
1.9262695	7.119386
1.9287109	7.991441
1.9311523	8.94021
1.9335938	9.904459
1.9360352	10.845208
1.9384766	11.761609
1.940918	12.639757
1.9433594	13.4551
1.9458008	14.182428
1.9482422	14.771243
1.9506836	15.181117
1.953125	15.39511
1.9555664	15.398672
1.9580078	15.217291
1.9604492	14.903472
1.9628906	14.521205
1.965332	14.16654
1.9677734	13.913204
1.9702148	13.802932
1.9726562	13.838243
1.9750977	13.965573
1.9775391	14.11362
1.9799805	14.195193
1.9824219	14.127086
1.9848633	13.845263
1.9873047	13.298281
1.9897461	12.470519
1.9921875	11.375526
1.9946289	10.057364
1.9970703	8.602805
1.9995117	7.094543
2.0019531	5.609474
2.0043945	4.22784
2.006836	3.0263388
2.0092773	2.172284
2.0117188	1.950386
2.0141602	2.3582482
2.0166016	3.0060642
2.019043	3.6237857
2.0214844	4.089751
2.0239258	4.350393
2.0263672	4.385075
2.0288086	4.209302
2.03125	3.868691
2.0336914	3.4241407
2.0361328	2.9632995
2.0385742	2.5798595
2.0410156	2.34954
2.043457	2.294767
2.0458984	2.365585
2.0483398	2.516194
2.0507812	2.734487
2.0532227	3.0080564
2.055664	3.347442
2.0581055	3.7290792
2.0605469	4.1163683
2.0629883	4.504639
2.0654297	4.857991
2.067871	5.161973
2.0703125	5.41826
2.072754	5.598664
2.0751953	5.6999383
2.0776367	5.718369
2.0800781	5.641502
2.0825195	5.490485
2.084961	5.308904
2.0874023	5.1689577
2.0898438	5.1602845
2.0922852	5.359046
2.0947266	5.764452
2.097168	6.309499
2.0996094	6.9150057
2.1020508	7.477448
2.1044922	7.936487
2.1069336	8.257522
2.109375	8.405892
2.1118164	8.4014845
2.1142578	8.260919
2.1166992	7.9951377
2.1191406	7.636408
2.121582	7.1892786
2.1240234	6.67228
2.1264648	6.133504
2.1289062	5.648965
2.1313477	5.353449
2.133789	5.365569
2.1362305	5.731913
2.1386719	6.3686185
2.1411133	7.1278048
2.1435547	7.87474
2.145996	8.485834
2.1484375	8.896741
2.150879	9.06441
2.1533203	8.973255
2.1557617	8.647952
2.1582031	8.112914
2.1606445	7.4144197
2.163086	6.604499
2.1655273	5.7280188
2.1679688	4.8301373
2.1704102	3.95038
2.1728516	3.1247063
2.175293	2.384826
2.1777344	1.7736197
2.1801758	1.320203
2.1826172	1.0325507
2.1850586	0.8815334
2.1875	0.8086311
2.1899414	0.79751766
2.1923828	0.85020393
2.1948242	0.9437143
2.1972656	1.0359852
2.199707	1.0924069
2.2021484	1.1077507
2.2045898	1.1011702
2.2070312	1.1130059
2.2094727	1.1923422
2.211914	1.3496064
2.2143555	1.5546054
2.2167969	1.7791169
2.2192383	1.9937536
2.2216797	2.1737597
2.224121	2.3160245
2.2265625	2.4120817
2.229004	2.4647157
2.2314453	2.4795606
2.2338867	2.4551687
2.2363281	2.3942447
2.2387695	2.2831688
2.241211	2.1259615
2.2436523	1.929444
2.2460938	1.7089298
2.2485352	1.5190444
2.2509766	1.407023
2.253418	1.4114166
2.2558594	1.5427394
2.2583008	1.7505871
2.2607422	1.9806367
2.2631836	2.1998448
2.265625	2.3706086
2.2680664	2.4772513
2.2705078	2.5097313
2.2729492	2.4637506
2.2753906	2.3437572
2.277832	2.1470213
2.2802734	1.8855865
2.2827148	1.5557903
2.2851562	1.1670572
2.2875977	0.7486318
2.290039	0.36173618
2.2924805	0.3863924
2.2949219	0.73254484
2.2973633	1.0677615
2.2998047	1.3149942
2.302246	1.455313
2.3046875	1.4910619
2.307129	1.4295865
2.3095703	1.3131003
2.3120117	1.2153281
2.3144531	1.2307681
2.3168945	1.4220005
2.319336	1.7550364
2.3217773	2.1570349
2.3242188	2.5827389
2.3266602	3.0005395
2.3291016	3.3997035
2.331543	3.7838242
2.3339844	4.1498647
2.3364258	4.4987135
2.3388672	4.8205104
2.3413086	5.0999565
2.34375	5.3257422
2.3461914	5.482131
2.3486328	5.565362
2.3510742	5.5715785
2.3535156	5.495538
2.355957	5.3457327
2.3583984	5.1263103
2.3608398	4.851837
2.3632812	4.5566053
2.3657227	4.274972
2.368164	4.0572267
2.3706055	3.9523344
2.3730469	3.980669
2.3754883	4.137923
2.3779297	4.375358
2.380371	4.6337843
2.3828125	4.855667
2.385254	4.994057
2.3876953	5.028219
2.3901367	4.937395
2.3925781	4.729809
2.3950195	4.419062
2.397461	4.023074
2.3999023	3.5918853
2.4023438	3.1620731
2.4047852	2.799188
2.4072266	2.5749257
2.409668	2.5397913
2.4121094	2.7015495
2.4145508	2.9951658
2.4169922	3.3344827
2.4194336	3.6469288
2.421875	3.887562
2.4243164	4.0188646
2.4267578	4.0406303
2.4291992	3.9456341
2.4316406	3.7411678
2.434082	3.4590828
2.4365234	3.1132126
2.4389648	2.7572124
2.4414062	2.44388
2.4438477	2.2481956
2.446289	2.2500107
2.4487305	2.4606338
2.4511719	2.835007
2.4536133	3.2848308
2.4560547	3.7588427
