
X-Axis: Frequency (hz)
Y-Axis: Fourier Amplitude (cm/s)
Number of Data Sets: 4


DATASET #1

Name: FAS H1 (cm/s)
Num Points: 2044
Info: 

X, Y Data:
0.009765625	0.44903058
0.012207031	0.7010013
0.014648438	1.005908
0.017089844	1.3399591
0.01953125	1.6656202
0.021972656	1.9344592
0.024414062	2.093468
0.026855469	2.0944514
0.029296875	1.9054558
0.03173828	1.5229535
0.034179688	0.9872478
0.036621094	0.4638051
0.0390625	0.64357567
0.041503906	1.2049015
0.043945312	1.6582061
0.04638672	1.898964
0.048828125	1.9112188
0.05126953	1.7892987
0.053710938	1.8312328
0.056152344	2.426855
0.05859375	3.6075146
0.061035156	5.1914206
0.06347656	7.025577
0.06591797	8.978688
0.068359375	10.917662
0.07080078	12.705102
0.07324219	14.207782
0.075683594	15.308772
0.078125	15.918921
0.080566406	15.98453
0.08300781	15.489981
0.08544922	14.455227
0.087890625	12.929771
0.09033203	10.984646
0.09277344	8.705034
0.095214844	6.186805
0.09765625	3.5469966
0.10009766	1.1230646
0.10253906	2.1463706
0.10498047	4.5051355
0.10742188	6.58385
0.10986328	8.16589
0.11230469	9.087453
0.11474609	9.217463
0.1171875	8.477793
0.11962891	6.872383
0.12207031	4.5544214
0.12451172	2.369967
0.12695312	3.8061736
0.12939453	7.4139614
0.13183594	11.24811
0.13427734	14.830596
0.13671875	17.880972
0.13916016	20.207373
0.14160156	21.699741
0.14404297	22.327148
0.14648438	22.128305
0.14892578	21.196188
0.15136719	19.661018
0.1538086	17.67836
0.15625	15.431999
0.1586914	13.166998
0.16113281	11.269393
0.16357422	10.337544
0.16601562	10.936379
0.16845703	13.021348
0.17089844	16.023237
0.17333984	19.35622
0.17578125	22.56344
0.17822266	25.286068
0.18066406	27.247719
0.18310547	28.267376
0.18554688	28.281048
0.18798828	27.355223
0.19042969	25.680477
0.1928711	23.53764
0.1953125	21.235462
0.1977539	19.0296
0.20019531	17.053207
0.20263672	15.303084
0.20507812	13.699198
0.20751953	12.175324
0.20996094	10.736056
0.21240234	9.457121
0.21484375	8.459678
0.21728516	7.9014754
0.21972656	7.9664917
0.22216797	8.762255
0.22460938	10.178585
0.22705078	11.904327
0.22949219	13.557103
0.2319336	14.784657
0.234375	15.320549
0.2368164	15.011281
0.23925781	13.818378
0.24169922	11.79822
0.24414062	9.069389
0.24658203	5.785848
0.24902344	2.193855
0.25146484	2.26866
0.25390625	6.2534
0.25634766	10.296837
0.25878906	14.121999
0.26123047	17.540878
0.26367188	20.396795
0.26611328	22.573547
0.2685547	24.00307
0.2709961	24.668451
0.2734375	24.60488
0.2758789	23.90003
0.2783203	22.689991
0.28076172	21.142511
0.28320312	19.420551
0.28564453	17.631773
0.28808594	15.788028
0.29052734	13.808293
0.29296875	11.574869
0.29541016	9.014682
0.29785156	6.167928
0.30029297	3.2629225
0.30273438	1.5049134
0.30517578	3.1951332
0.3076172	5.130137
0.3100586	6.363129
0.3125	6.733749
0.3149414	6.2773747
0.3173828	5.2192307
0.31982422	4.116158
0.32226562	4.102932
0.32470703	5.76744
0.32714844	8.384287
0.32958984	11.435668
0.33203125	14.750928
0.33447266	18.280611
0.33691406	21.995577
0.33935547	25.840256
0.34179688	29.714321
0.34423828	33.478687
0.3466797	36.983803
0.3491211	40.1117
0.3515625	42.816788
0.3540039	45.14525
0.3564453	47.21796
0.35888672	49.175453
0.36132812	51.10566
0.36376953	52.989162
0.36621094	54.688267
0.36865234	55.978134
0.37109375	56.59801
0.37353516	56.300694
0.37597656	54.893433
0.37841797	52.27218
0.38085938	48.454563
0.38330078	43.61173
0.3857422	38.100952
0.3881836	32.503197
0.390625	27.665743
0.3930664	24.657257
0.3955078	24.338518
0.39794922	26.66346
0.40039062	30.821268
0.40283203	36.033184
0.40527344	41.86572
0.40771484	48.127712
0.41015625	54.715534
0.41259766	61.50931
0.41503906	68.32109
0.41748047	74.88071
0.41992188	80.851555
0.42236328	85.86667
0.4248047	89.577576
0.4272461	91.702835
0.4296875	92.06514
0.4321289	90.60561
0.4345703	87.37298
0.43701172	82.489914
0.43945312	76.110825
0.44189453	68.38954
0.44433594	59.47588
0.44677734	49.55362
0.44921875	38.92708
0.45166016	28.192245
0.45410156	18.727716
0.45654297	14.107283
0.45898438	17.413311
0.46142578	24.095716
0.4638672	30.45304
0.4663086	35.40392
0.46875	38.85366
0.4711914	41.158962
0.4736328	42.842606
0.47607422	44.322044
0.47851562	45.71586
0.48095703	46.837807
0.48339844	47.36247
0.48583984	47.03081
0.48828125	45.784374
0.49072266	43.79953
0.49316406	41.442184
0.49560547	39.17641
0.49804688	37.459114
0.5004883	36.65574
0.5029297	37.000275
0.5053711	38.592213
0.5078125	41.392857
0.5102539	45.202282
0.5126953	49.645065
0.5151367	54.196712
0.5175781	58.249954
0.52001953	61.197826
0.52246094	62.509655
0.52490234	61.78949
0.52734375	58.815544
0.52978516	53.56859
0.53222656	46.26488
0.53466797	37.427536
0.5371094	28.110378
0.5395508	20.640198
0.5419922	19.360756
0.5444336	25.223335
0.546875	33.838615
0.5493164	42.32176
0.5517578	49.47738
0.5541992	54.78169
0.5566406	58.027203
0.55908203	59.202892
0.56152344	58.462585
0.56396484	56.15339
0.56640625	52.8864
0.56884766	49.59051
0.57128906	47.398983
0.57373047	47.189583
0.5761719	48.974266
0.5786133	51.821003
0.5810547	54.432747
0.5834961	55.734737
0.5859375	55.127472
0.5883789	52.49936
0.5908203	48.12676
0.5932617	42.525417
0.5957031	36.29065
0.59814453	29.953455
0.60058594	23.875916
0.60302734	18.196693
0.60546875	12.835926
0.60791016	7.58184
0.61035156	2.5817769
0.61279297	4.7199683
0.6152344	10.950466
0.6176758	17.52187
0.6201172	23.872337
0.6225586	29.520931
0.625	34.134308
0.6274414	37.67122
0.6298828	40.48217
0.6323242	43.29205
0.6347656	46.98554
0.63720703	52.208023
0.63964844	59.02463
0.64208984	66.89241
0.64453125	74.88416
0.64697266	81.94282
0.64941406	87.068756
0.65185547	89.44693
0.6542969	88.531876
0.6567383	84.09865
0.6591797	76.27182
0.6616211	65.55864
0.6640625	52.939484
0.6665039	40.1458
0.6689453	30.362623
0.6713867	28.069485
0.6738281	33.253998
0.67626953	40.648827
0.67871094	46.571423
0.68115234	49.55554
0.68359375	49.31848
0.68603516	46.26507
0.68847656	41.209778
0.69091797	35.149277
0.6933594	29.039923
0.6958008	23.571257
0.6982422	18.976704
0.7006836	15.03084
0.703125	11.337069
0.7055664	7.7058535
0.7080078	4.320666
0.7104492	1.6711384
0.7128906	0.84533316
0.71533203	1.4422168
0.71777344	2.3635106
0.72021484	3.8678136
0.72265625	5.1248293
0.72509766	5.1333165
0.72753906	3.8815026
0.72998047	5.798757
0.7324219	12.662659
0.7348633	21.337221
0.7373047	29.807825
0.7397461	36.32364
0.7421875	39.532043
0.7446289	38.755665
0.7470703	34.108307
0.7495117	26.419292
0.7519531	17.169666
0.75439453	9.690639
0.75683594	12.02811
0.75927734	20.097525
0.76171875	27.434235
0.76416016	32.12155
0.76660156	33.275486
0.76904297	30.725163
0.7714844	25.200285
0.7739258	18.63264
0.7763672	14.631797
0.7788086	16.038338
0.78125	19.845177
0.7836914	22.696123
0.7861328	23.705185
0.7885742	23.275806
0.7910156	22.22883
0.79345703	21.316854
0.79589844	21.237429
0.79833984	22.928173
0.80078125	27.260271
0.80322266	34.236515
0.80566406	43.02703
0.80810547	52.57725
0.8105469	61.9618
0.8129883	70.4601
0.8154297	77.48686
0.8178711	82.44474
0.8203125	84.586754
0.8227539	83.02085
0.8251953	76.936295
0.8276367	66.01032
0.8300781	50.874477
0.83251953	33.68103
0.83496094	20.092604
0.83740234	21.389997
0.83984375	31.472588
0.84228516	39.486877
0.84472656	43.497757
0.84716797	45.151604
0.8496094	47.42624
0.8520508	51.983894
0.8544922	57.588898
0.8569336	61.609676
0.859375	62.10366
0.8618164	58.722336
0.8642578	52.903984
0.8666992	47.709305
0.8691406	46.580994
0.87158203	50.39611
0.87402344	56.634594
0.87646484	62.191765
0.87890625	65.14594
0.88134766	64.82086
0.88378906	61.471577
0.88623047	55.989025
0.8886719	49.625603
0.8911133	43.683006
0.8935547	39.10023
0.8959961	36.065723
0.8984375	34.091038
0.9008789	32.712738
0.9033203	32.234978
0.9057617	33.72583
0.9082031	37.901867
0.91064453	44.067738
0.91308594	50.53344
0.91552734	55.581543
0.91796875	57.98812
0.92041016	57.169918
0.92285156	53.139034
0.92529297	46.340656
0.9277344	37.44567
0.9301758	27.191387
0.9326172	16.335155
0.9350586	5.712898
0.9375	3.866681
0.9399414	11.212637
0.9423828	15.681453
0.9448242	16.999517
0.9472656	15.890738
0.94970703	14.491609
0.95214844	15.466039
0.95458984	18.586504
0.95703125	21.282063
0.95947266	21.827997
0.96191406	20.1526
0.96435547	17.851477
0.9667969	17.364338
0.9692383	19.069153
0.9716797	20.559383
0.9741211	19.571196
0.9765625	15.273565
0.9790039	8.894456
0.9814453	9.400179
0.9838867	19.825607
0.9863281	31.80503
0.98876953	42.7734
0.99121094	51.433598
0.99365234	57.093384
0.99609375	59.722935
0.99853516	59.989227
1.0009766	59.071823
1.003418	58.16287
1.0058594	57.808315
1.0083008	57.585735
1.0107422	56.42787
1.0131836	53.247494
1.015625	47.401943
1.0180664	38.884983
1.0205078	28.324654
1.0229492	16.840612
1.0253906	5.8548217
1.027832	4.299046
1.0302734	11.360403
1.0327148	16.14877
1.0351562	18.93256
1.0375977	20.4035
1.0400391	21.190435
1.0424805	21.58997
1.0449219	21.541723
1.0473633	20.800426
1.0498047	19.183321
1.0522461	16.807402
1.0546875	14.227415
1.0571289	12.396097
1.0595703	12.346755
1.0620117	14.663901
1.0644531	19.2604
1.0668945	25.47862
1.0693359	32.174667
1.0717773	37.98307
1.0742188	41.714577
1.0766602	42.68698
1.0791016	40.851173
1.081543	36.705845
1.0839844	31.05682
1.0864258	24.70901
1.0888672	18.174257
1.0913086	11.540924
1.09375	4.901692
1.0961914	4.7525463
1.0986328	12.093501
1.1010742	19.219362
1.1035156	24.710562
1.105957	27.977623
1.1083984	29.48195
1.1108398	30.710306
1.1132812	33.04073
1.1157227	36.19533
1.1181641	38.440155
1.1206055	38.153637
1.1230469	35.040653
1.1254883	30.918667
1.1279297	29.959738
1.1303711	35.317745
1.1328125	44.96702
1.1352539	55.374702
1.1376953	64.51292
1.1401367	71.77814
1.1425781	77.428276
1.1450195	81.955605
1.1474609	85.502205
1.1499023	87.61332
1.1523438	87.48611
1.1547852	84.50217
1.1572266	78.67274
1.159668	70.75551
1.1621094	61.994316
1.1645508	53.607445
1.1669922	46.295937
1.1694336	40.120613
1.171875	34.82353
1.1743164	30.272188
1.1767578	26.685432
1.1791992	24.550817
1.1816406	24.14982
1.184082	24.988611
1.1865234	26.014126
1.1889648	26.494211
1.1914062	26.669872
1.1938477	27.671993
1.1962891	30.436642
1.1987305	34.57405
1.2011719	38.72677
1.2036133	41.54962
1.2060547	42.097187
1.2084961	39.78368
1.2109375	34.40345
1.2133789	26.621813
1.2158203	19.883743
1.2182617	22.468544
1.2207031	34.44019
1.2231445	48.69775
1.2255859	61.573658
1.2280273	71.43421
1.2304688	77.66576
1.2329102	80.21896
1.2353516	79.24904
1.237793	74.95819
1.2402344	67.70972
1.2426758	58.2509
1.2451172	47.798416
1.2475586	37.87671
1.25	30.01621
1.2524414	25.470667
1.2548828	24.770449
1.2573242	27.167013
1.2597656	31.02912
1.262207	34.768
1.2646484	37.224228
1.2670898	37.697025
1.2695312	35.843662
1.2719727	31.551512
1.2744141	24.905846
1.2768555	16.477058
1.2792969	9.509676
1.2817383	14.346258
1.2841797	25.963652
1.2866211	37.878674
1.2890625	48.12202
1.2915039	55.654987
1.2939453	60.040115
1.2963867	61.4146
1.2988281	60.377052
1.3012695	57.76988
1.3037109	54.43718
1.3061523	51.030045
1.3085938	47.87697
1.3110352	44.935772
1.3134766	41.910362
1.315918	38.602676
1.3183594	35.370087
1.3208008	33.34292
1.3232422	33.817562
1.3256836	36.94182
1.328125	41.508087
1.3305664	46.14255
1.3330078	50.10168
1.3354492	53.299377
1.3378906	56.015003
1.340332	58.563004
1.3427734	61.05728
1.3452148	63.330196
1.3476562	64.98952
1.3500977	65.55089
1.3525391	64.584564
1.3549805	61.831223
1.3574219	57.264923
1.3598633	51.105705
1.3623047	43.7926
1.3647461	35.924854
1.3671875	28.1753
1.3696289	21.173822
1.3720703	15.367076
1.3745117	10.903459
1.3769531	7.664591
1.3793945	5.5100794
1.3818359	4.5360227
1.3842773	5.017172
1.3867188	7.2402287
1.3891602	11.348527
1.3916016	17.060316
1.394043	23.683863
1.3964844	30.38593
1.3989258	36.503056
1.4013672	41.729866
1.4038086	46.068085
1.40625	49.59978
1.4086914	52.3171
1.4111328	54.1753
1.4135742	55.269455
1.4160156	55.898968
1.418457	56.442627
1.4208984	57.196762
1.4233398	58.319195
1.4257812	59.833313
1.4282227	61.563763
1.4306641	63.06922
1.4331055	63.730103
1.4355469	62.986027
1.4379883	60.546387
1.4404297	56.4456
1.4428711	50.960087
1.4453125	44.509087
1.4477539	37.649914
1.4501953	31.252834
1.4526367	26.819166
1.4550781	26.272984
1.4575195	30.140432
1.4599609	36.78005
1.4624023	44.202614
1.4648438	50.95416
1.4672852	56.01381
1.4697266	58.67276
1.472168	58.531425
1.4746094	55.547203
1.4770508	50.07787
1.4794922	42.909504
1.4819336	35.316933
1.484375	29.191204
1.4868164	26.769365
1.4892578	28.778036
1.4916992	33.32975
1.4941406	38.091618
1.496582	41.68852
1.4990234	43.692314
1.5014648	44.422985
1.5039062	44.69252
1.5063477	45.364487
1.5087891	46.852535
1.5112305	48.92023
1.5136719	50.914696
1.5161133	52.11824
1.5185547	51.939095
1.5209961	49.95601
1.5234375	45.925888
1.5258789	39.803204
1.5283203	31.762932
1.5307617	22.232462
1.5332031	12.08271
1.5356445	5.725374
1.5380859	12.805273
1.5405273	21.999666
1.5429688	29.817394
1.5454102	35.542805
1.5478516	38.9989
1.550293	40.462677
1.5527344	40.65029
1.5551758	40.563206
1.5576172	41.087837
1.5600586	42.480396
1.5625	44.20426
1.5649414	45.316486
1.5673828	45.015842
1.5698242	42.976532
1.5722656	39.421535
1.574707	35.008354
1.5771484	30.626083
1.5795898	27.182985
1.5820312	25.409235
1.5844727	25.621544
1.5869141	27.58706
1.5893555	30.696697
1.5917969	34.25861
1.5942383	37.62019
1.5966797	40.162697
1.5991211	41.30054
1.6015625	40.538498
1.6040039	37.548325
1.6064453	32.220837
1.6088867	24.689594
1.6113281	15.369722
1.6137695	5.3446054
1.6162109	7.340581
1.6186523	17.4012
1.6210938	26.188316
1.6235352	32.691204
1.6259766	36.44896
1.628418	37.38995
1.6308594	35.744232
1.6333008	31.925385
1.6357422	26.434383
1.6381836	19.81644
1.640625	12.666654
1.6430664	5.6606197
1.6455078	1.6882045
1.6479492	6.453601
1.6503906	10.644094
1.652832	14.350751
1.6552734	18.613827
1.6577148	24.38856
1.6601562	31.956173
1.6625977	40.941998
1.6650391	50.58806
1.6674805	59.901157
1.6699219	67.740654
1.6723633	72.97356
1.6748047	74.7241
1.6772461	72.66407
1.6796875	67.274376
1.6821289	60.054222
1.6845703	53.63863
1.6870117	51.306324
1.6894531	54.914215
1.6918945	63.19604
1.6943359	73.387245
1.6967773	83.17638
1.6992188	91.06486
1.7016602	96.167336
1.7041016	98.03335
1.706543	96.51806
1.7089844	91.67855
1.7114258	83.6964
1.7138672	72.848885
1.7163086	59.53522
1.71875	44.334103
1.7211914	28.055809
1.7236328	11.883489
1.7260742	5.952964
1.7285156	18.8253
1.730957	30.15962
1.7333984	38.964493
1.7358398	45.511543
1.7382812	50.559467
1.7407227	54.996555
1.7431641	59.391933
1.7456055	63.716377
1.7480469	67.430786
1.7504883	69.83478
1.7529297	70.400986
1.7553711	68.96518
1.7578125	65.76437
1.7602539	61.37922
1.7626953	56.6369
1.7651367	52.49359
1.7675781	49.842293
1.7700195	49.175106
1.7724609	50.264614
1.7749023	52.24013
1.7773438	54.048527
1.7797852	54.897305
1.7822266	54.4544
1.784668	52.830776
1.7871094	50.42823
1.7895508	47.740303
1.7919922	45.185123
1.7944336	43.02371
1.796875	41.359913
1.7993164	40.175552
1.8017578	39.360336
1.8041992	38.71508
1.8066406	37.94681
1.809082	36.696953
1.8115234	34.61651
1.8139648	31.464443
1.8164062	27.176323
1.8188477	21.87846
1.8212891	15.875985
1.8237305	9.704066
1.8261719	4.8539844
1.8286133	5.9815016
1.8310547	10.227076
1.8334961	13.84849
1.8359375	16.195765
1.8383789	17.24381
1.8408203	17.292189
1.8432617	16.915394
1.8457031	16.89761
1.8481445	17.964645
1.8505859	20.324797
1.8530273	23.561615
1.8554688	26.99223
1.8579102	29.996922
1.8603516	32.14282
1.862793	33.202484
1.8652344	33.127407
1.8676758	32.009197
1.8701172	30.053375
1.8725586	27.573956
1.875	25.011082
1.8774414	22.919252
1.8798828	21.852343
1.8823242	22.096886
1.8847656	23.489052
1.887207	25.573862
1.8896484	27.896822
1.8920898	30.123444
1.8945312	32.00352
1.8969727	33.312763
1.8994141	33.853767
1.9018555	33.523247
1.9042969	32.40411
1.9067383	30.822
1.9091797	29.299953
1.9116211	28.362505
1.9140625	28.246412
1.9165039	28.750395
1.9189453	29.397154
1.9213867	29.721954
1.9238281	29.455338
1.9262695	28.567036
1.9287109	27.251059
1.9311523	25.908554
1.9335938	25.099928
1.9360352	25.381668
1.9384766	27.01353
1.940918	29.79769
1.9433594	33.238224
1.9458008	36.798267
1.9482422	40.040756
1.9506836	42.66121
1.953125	44.485847
1.9555664	45.472878
1.9580078	45.71446
1.9604492	45.42689
1.9628906	44.90418
1.965332	44.423576
1.9677734	44.119225
1.9702148	43.87953
1.9726562	43.3503
1.9750977	42.05224
1.9775391	39.557728
1.9799805	35.647877
1.9824219	30.403687
1.9848633	24.222017
1.9873047	17.79964
1.9897461	12.238822
1.9921875	9.435279
1.9946289	10.703542
1.9970703	14.084407
1.9995117	17.769928
2.0019531	21.145012
2.0043945	23.923689
2.006836	25.828375
2.0092773	26.608921
2.0117188	26.211433
2.0141602	25.016787
2.0166016	24.047686
2.019043	24.772253
2.0214844	28.037222
2.0239258	33.242035
2.0263672	39.02447
2.0288086	44.12464
2.03125	47.64698
2.0336914	49.065075
2.0361328	48.174267
2.0385742	45.0472
2.0410156	40.00506
2.043457	33.64926
2.0458984	27.01935
2.0483398	21.953783
2.0507812	20.917032
2.0532227	24.349674
2.055664	29.82315
2.0581055	35.04531
2.0605469	38.714813
2.0629883	40.16884
2.0654297	39.163105
2.067871	35.779823
2.0703125	30.364176
2.072754	23.453873
2.0751953	15.697517
2.0776367	7.7992945
2.0800781	1.816383
2.0825195	7.0734563
2.084961	12.542031
2.0874023	16.62359
2.0898438	19.125925
2.0922852	20.014782
2.0947266	19.40634
2.097168	17.599808
2.0996094	15.12555
2.1020508	12.778633
2.1044922	11.508518
2.1069336	11.843421
2.109375	13.417117
2.1118164	15.609266
2.1142578	18.124239
2.1166992	20.869768
2.1191406	23.678167
2.121582	26.186342
2.1240234	27.899189
2.1264648	28.334427
2.1289062	27.162174
2.1313477	24.300411
2.133789	19.956964
2.1362305	14.626629
2.1386719	9.123406
2.1411133	5.2328315
2.1435547	6.3813577
2.145996	10.17683
2.1484375	14.140938
2.150879	18.118156
2.1533203	22.318573
2.1557617	26.77437
2.1582031	31.218927
2.1606445	35.18471
2.163086	38.17486
2.1655273	39.81602
2.1679688	39.9622
2.1704102	38.75273
2.1728516	36.631325
2.175293	34.32436
2.1777344	32.719444
2.1801758	32.55962
2.1826172	34.043365
2.1850586	36.740585
2.1875	39.929558
2.1899414	42.946865
2.1923828	45.32169
2.1948242	46.76884
2.1972656	47.144577
2.199707	46.404896
2.2021484	44.577114
2.2045898	41.740894
2.2070312	38.01746
2.2094727	33.56085
2.211914	28.551094
2.2143555	23.189777
2.2167969	17.696573
2.2192383	12.315404
2.2216797	7.3639355
2.224121	3.657295
2.2265625	3.9488695
2.229004	6.682905
2.2314453	9.227533
2.2338867	11.186171
2.2363281	12.549838
2.2387695	13.410946
2.241211	13.904641
2.2436523	14.172475
2.2460938	14.327843
2.2485352	14.422255
2.2509766	14.432426
2.253418	14.27497
2.2558594	13.840763
2.2583008	13.034175
2.2607422	11.801924
2.2631836	10.149446
2.265625	8.144519
2.2680664	5.913597
2.2705078	3.642389
2.2729492	1.6814696
2.2753906	1.5034662
2.277832	2.8477654
2.2802734	4.052474
2.2827148	4.908259
2.2851562	5.4194894
2.2875977	5.619976
2.290039	5.534176
2.2924805	5.1794214
2.2949219	4.6303244
2.2973633	4.174398
2.2998047	4.440679
2.302246	5.8541746
2.3046875	8.107893
2.307129	10.708171
2.3095703	13.253482
2.3120117	15.420738
2.3144531	16.9598
2.3168945	17.70832
2.319336	17.602886
2.3217773	16.679474
2.3242188	15.059366
2.3266602	12.925324
2.3291016	10.502769
2.331543	8.083304
2.3339844	6.18945
2.3364258	5.8131537
2.3388672	7.460762
2.3413086	10.310208
2.34375	13.561183
2.3461914	16.718065
2.3486328	19.394884
2.3510742	21.272587
2.3535156	22.131691
2.355957	21.893185
2.3583984	20.640543
2.3608398	18.612446
2.3632812	16.169043
2.3657227	13.744636
2.368164	11.791772
2.3706055	10.693983
2.3730469	10.617634
2.3754883	11.427157
2.3779297	12.810207
2.380371	14.434852
2.3828125	15.993916
2.385254	17.211578
2.3876953	17.863462
2.3901367	17.809006
2.3925781	17.011475
2.3950195	15.540415
2.397461	13.552282
2.3999023	11.254551
2.4023438	8.867806
2.4047852	6.6097736
2.4072266	4.753321
2.409668	3.7970505
2.4121094	4.2050176
2.4145508	5.5279574
2.4169922	7.1038985
2.4194336	8.591063
2.421875	9.80808
2.4243164	10.635139
2.4267578	10.982377
2.4291992	10.783267
2.4316406	10.001431
2.434082	8.65165
2.4365234	6.8370514
2.4389648	4.832965
2.4414062	3.3746464
2.4438477	3.703289
2.446289	5.2725396
2.4487305	6.817253
2.4511719	7.807488
2.4536133	8.039482
2.4560547	7.4685383
