
X-Axis: Frequency (hz)
Y-Axis: Fourier Amplitude (cm/s)
Number of Data Sets: 4


DATASET #1

Name: FAS H1 (cm/s)
Num Points: 2044
Info: 

X, Y Data:
0.009765625	0.13898715
0.012207031	0.1925161
0.014648438	0.27177817
0.017089844	0.3893333
0.01953125	0.55637765
0.021972656	0.7821919
0.024414062	1.0743673
0.026855469	1.438328
0.029296875	1.8764577
0.03173828	2.3873463
0.034179688	2.9654953
0.036621094	3.6016276
0.0390625	4.283043
0.041503906	4.9944696
0.043945312	5.7191634
0.04638672	6.4401884
0.048828125	7.1414275
0.05126953	7.8082557
0.053710938	8.427876
0.056152344	8.98977
0.05859375	9.4858675
0.061035156	9.910476
0.06347656	10.259764
0.06591797	10.531566
0.068359375	10.725307
0.07080078	10.841766
0.07324219	10.882439
0.075683594	10.848963
0.078125	10.742788
0.080566406	10.565157
0.08300781	10.316794
0.08544922	9.9976635
0.087890625	9.607264
0.09033203	9.145487
0.09277344	8.613623
0.095214844	8.01545
0.09765625	7.3587584
0.10009766	6.6578326
0.10253906	5.937117
0.10498047	5.2360196
0.10742188	4.6153197
0.10986328	4.1608934
0.11230469	3.9685798
0.11474609	4.0945745
0.1171875	4.5113745
0.11962891	5.1328354
0.12207031	5.8698874
0.12451172	6.6567593
0.12695312	7.45165
0.12939453	8.231049
0.13183594	8.984719
0.13427734	9.711958
0.13671875	10.418553
0.13916016	11.11401
0.14160156	11.809187
0.14404297	12.51426
0.14648438	13.237268
0.14892578	13.983357
0.15136719	14.754959
0.1538086	15.552399
0.15625	16.375193
0.1586914	17.22312
0.16113281	18.097454
0.16357422	19.001522
0.16601562	19.940685
0.16845703	20.921574
0.17089844	21.950623
0.17333984	23.032093
0.17578125	24.16586
0.17822266	25.345234
0.18066406	26.555367
0.18310547	27.772066
0.18554688	28.961723
0.18798828	30.082214
0.19042969	31.08455
0.1928711	31.915781
0.1953125	32.5223
0.1977539	32.853855
0.20019531	32.86811
0.20263672	32.5354
0.20507812	31.844
0.20751953	30.805773
0.20996094	29.461897
0.21240234	27.889324
0.21484375	26.207296
0.21728516	24.582232
0.21972656	23.224209
0.22216797	22.362606
0.22460938	22.190548
0.22705078	22.794106
0.22949219	24.116608
0.2319336	25.990223
0.234375	28.203287
0.2368164	30.554312
0.23925781	32.87679
0.24169922	35.044144
0.24414062	36.966427
0.24658203	38.585434
0.24902344	39.869766
0.25146484	40.81056
0.25390625	41.417194
0.25634766	41.713074
0.25878906	41.731937
0.26123047	41.514507
0.26367188	41.105732
0.26611328	40.552315
0.2685547	39.900696
0.2709961	39.1955
0.2734375	38.479412
0.2758789	37.79379
0.2783203	37.18006
0.28076172	36.680588
0.28320312	36.338306
0.28564453	36.194645
0.28808594	36.285145
0.29052734	36.633526
0.29296875	37.245186
0.29541016	38.1024
0.29785156	39.16332
0.30029297	40.36524
0.30273438	41.631687
0.30517578	42.88218
0.3076172	44.04207
0.3100586	45.051903
0.3125	45.87473
0.3149414	46.501415
0.3173828	46.95275
0.31982422	47.277786
0.32226562	47.54678
0.32470703	47.838917
0.32714844	48.225357
0.32958984	48.750496
0.33203125	49.415947
0.33447266	50.172497
0.33691406	50.922344
0.33935547	51.53078
0.34179688	51.84396
0.34423828	51.70855
0.3466797	50.989845
0.3491211	49.58718
0.3515625	47.44607
0.3540039	44.567963
0.3564453	41.01953
0.35888672	36.943245
0.36132812	32.575054
0.36376953	28.274614
0.36621094	24.564674
0.36865234	22.120695
0.37109375	21.540728
0.37353516	22.896166
0.37597656	25.643135
0.37841797	29.05946
0.38085938	32.57626
0.38330078	35.825542
0.3857422	38.591488
0.3881836	40.7641
0.390625	42.30723
0.3930664	43.234173
0.3955078	43.584953
0.39794922	43.402603
0.40039062	42.71037
0.40283203	41.4936
0.40527344	39.69104
0.40771484	37.199955
0.41015625	33.89521
0.41259766	29.66137
0.41503906	24.437645
0.41748047	18.294783
0.41992188	11.699284
0.42236328	7.284306
0.4248047	11.304314
0.4272461	19.743366
0.4296875	29.025873
0.4321289	38.19061
0.4345703	46.694336
0.43701172	54.10642
0.43945312	60.07306
0.44189453	64.32167
0.44433594	66.66965
0.44677734	67.02928
0.44921875	65.40685
0.45166016	61.896027
0.45410156	56.665924
0.45654297	49.94471
0.45898438	42.00313
0.46142578	33.146927
0.4638672	23.751757
0.4663086	14.526947
0.46875	8.5633545
0.4711914	13.003222
0.4736328	22.368898
0.47607422	32.42388
0.47851562	42.24233
0.48095703	51.354313
0.48339844	59.35242
0.48583984	65.84455
0.48828125	70.47178
0.49072266	72.9432
0.49316406	73.07146
0.49560547	70.80106
0.49804688	66.22979
0.5004883	59.63534
0.5029297	51.541252
0.5053711	42.902565
0.5078125	35.550125
0.5102539	32.59369
0.5126953	36.488426
0.5151367	45.821148
0.5175781	57.483543
0.52001953	69.12411
0.52246094	79.10648
0.52490234	86.18133
0.52734375	89.38893
0.52978516	88.08486
0.53222656	82.00217
0.53466797	71.305695
0.5371094	56.625637
0.5395508	39.11355
0.5419922	20.959942
0.5444336	12.220028
0.546875	25.358675
0.5493164	41.068745
0.5517578	53.96524
0.5541992	62.751526
0.5566406	66.926735
0.55908203	66.47779
0.56152344	61.77302
0.56396484	53.459473
0.56640625	42.35431
0.56884766	29.359179
0.57128906	15.531859
0.57373047	5.514218
0.5761719	15.716075
0.5786133	28.915154
0.5810547	40.995697
0.5834961	51.12034
0.5859375	58.61215
0.5883789	62.849293
0.5908203	63.318626
0.5932617	59.709187
0.5957031	52.018032
0.59814453	40.664055
0.60058594	26.699461
0.60302734	13.245774
0.60546875	14.546965
0.60791016	28.166443
0.61035156	41.103607
0.61279297	50.461403
0.6152344	55.01834
0.6176758	54.31573
0.6201172	48.60451
0.6225586	38.8163
0.625	26.512266
0.6274414	14.161474
0.6298828	8.989841
0.6323242	15.942937
0.6347656	23.350819
0.63720703	28.40782
0.63964844	31.524708
0.64208984	33.984024
0.64453125	36.929546
0.64697266	40.50036
0.64941406	43.861996
0.65185547	46.0238
0.6542969	46.643353
0.6567383	46.4898
0.6591797	47.40738
0.6616211	51.309044
0.6640625	58.56304
0.6665039	67.72448
0.6689453	76.725914
0.6713867	83.83818
0.6738281	87.998825
0.67626953	88.84277
0.67871094	86.61963
0.68115234	82.051414
0.68359375	76.15582
0.68603516	70.058044
0.68847656	64.807495
0.69091797	61.20824
0.6933594	59.687286
0.6958008	60.25209
0.6982422	62.568066
0.7006836	66.095764
0.703125	70.2008
0.7055664	74.22084
0.7080078	77.53654
0.7104492	79.68395
0.7128906	80.50385
0.71533203	80.27257
0.71777344	79.70349
0.72021484	79.686905
0.72265625	80.76478
0.72509766	82.66031
0.72753906	84.30489
0.72998047	84.36224
0.7324219	81.839134
0.7348633	76.4686
0.7373047	68.804436
0.7397461	60.07112
0.7421875	51.821827
0.7446289	45.46053
0.7470703	41.755863
0.7495117	40.635464
0.7519531	41.41863
0.75439453	43.16573
0.75683594	44.911762
0.75927734	45.96414
0.76171875	46.322422
0.76416016	46.927452
0.76660156	49.218014
0.76904297	53.881443
0.7714844	60.062046
0.7739258	66.04565
0.7763672	70.40642
0.7788086	72.61506
0.78125	73.04704
0.7836914	72.547066
0.7861328	71.77537
0.7885742	70.75441
0.7910156	68.963196
0.79345703	65.8363
0.79589844	61.205948
0.79833984	55.427185
0.80078125	49.236015
0.80322266	43.5219
0.80566406	39.16175
0.80810547	36.893654
0.8105469	37.078907
0.8129883	39.457794
0.8154297	43.302326
0.8178711	47.873295
0.8203125	52.712154
0.8227539	57.627033
0.8251953	62.508793
0.8276367	67.16347
0.8300781	71.283325
0.83251953	74.54181
0.83496094	76.70173
0.83740234	77.6383
0.83984375	77.27015
0.84228516	75.48381
0.84472656	72.15342
0.84716797	67.28964
0.8496094	61.247894
0.8520508	54.85794
0.8544922	49.31773
0.8569336	45.723705
0.859375	44.414734
0.8618164	44.82967
0.8642578	46.137333
0.8666992	47.81806
0.8691406	49.65606
0.87158203	51.44906
0.87402344	52.896122
0.87646484	53.7808
0.87890625	54.22338
0.88134766	54.72285
0.88378906	55.882854
0.88623047	58.00672
0.8886719	60.946373
0.8911133	64.35318
0.8935547	68.04721
0.8959961	72.168625
0.8984375	77.04259
0.9008789	82.917885
0.9033203	89.806854
0.9057617	97.52083
0.9082031	105.80845
0.91064453	114.44729
0.91308594	123.23423
0.91552734	131.92078
0.91796875	140.16797
0.92041016	147.56674
0.92285156	153.71666
0.92529297	158.32697
0.9277344	161.2974
0.9301758	162.74258
0.9326172	162.9416
0.9350586	162.22507
0.9375	160.84935
0.9399414	158.92076
0.9423828	156.39868
0.9448242	153.14697
0.9472656	148.9816
0.94970703	143.68814
0.95214844	137.03639
0.95458984	128.83633
0.95703125	119.04559
0.95947266	107.89024
0.96191406	95.947075
0.96435547	84.139114
0.9667969	73.62615
0.9692383	65.55425
0.9716797	60.656208
0.9741211	58.883194
0.9765625	59.451866
0.9790039	61.330566
0.9814453	63.690186
0.9838867	66.05712
0.9863281	68.28594
0.98876953	70.48478
0.99121094	72.9305
0.99365234	75.95665
0.99609375	79.80824
0.99853516	84.51089
1.0009766	89.82279
1.003418	95.30057
1.0058594	100.44135
1.0083008	104.82568
1.0107422	108.20444
1.0131836	110.51299
1.015625	111.83595
1.0180664	112.35931
1.0205078	112.33362
1.0229492	112.03845
1.0253906	111.71763
1.027832	111.47868
1.0302734	111.20473
1.0327148	110.54975
1.0351562	109.04212
1.0375977	106.24457
1.0400391	101.88801
1.0424805	95.922
1.0449219	88.48602
1.0473633	79.83963
1.0498047	70.296974
1.0522461	60.185726
1.0546875	49.82544
1.0571289	39.512028
1.0595703	29.524216
1.0620117	20.226255
1.0644531	12.5475
1.0668945	9.559667
1.0693359	13.150379
1.0717773	18.738876
1.0742188	23.976528
1.0766602	28.607603
1.0791016	33.27582
1.081543	39.085033
1.0839844	47.019257
1.0864258	57.444187
1.0888672	70.081345
1.0913086	84.29442
1.09375	99.347336
1.0961914	114.55319
1.0986328	129.36096
1.1010742	143.39377
1.1035156	156.43225
1.105957	168.33955
1.1083984	178.96748
1.1108398	188.09964
1.1132812	195.45811
1.1157227	200.75722
1.1181641	203.76213
1.1206055	204.32362
1.1230469	202.38377
1.1254883	197.96724
1.1279297	191.17117
1.1303711	182.15727
1.1328125	171.14864
1.1352539	158.42586
1.1376953	144.32483
1.1401367	129.23813
1.1425781	113.61663
1.1450195	97.963
1.1474609	82.80554
1.1499023	68.650475
1.1523438	55.92498
1.1547852	44.932957
1.1572266	35.83732
1.159668	28.672527
1.1621094	23.378246
1.1645508	19.83976
1.1669922	17.919838
1.1694336	17.463516
1.171875	18.287504
1.1743164	20.193962
1.1767578	23.001724
1.1791992	26.562166
1.1816406	30.751411
1.184082	35.45176
1.1865234	40.53447
1.1889648	45.844143
1.1914062	51.184498
1.1938477	56.31119
1.1962891	60.942867
1.1987305	64.789825
1.2011719	67.594406
1.2036133	69.16755
1.2060547	69.41177
1.2084961	68.32905
1.2109375	66.0182
1.2133789	62.665707
1.2158203	58.530594
1.2182617	53.9213
1.2207031	49.16715
1.2231445	44.589607
1.2255859	40.476585
1.2280273	37.060688
1.2304688	34.49384
1.2329102	32.813053
1.2353516	31.916042
1.237793	31.572258
1.2402344	31.474556
1.2426758	31.301466
1.2451172	30.763157
1.2475586	29.631327
1.25	27.759346
1.2524414	25.107868
1.2548828	21.782064
1.2573242	18.119474
1.2597656	14.919854
1.262207	13.763041
1.2646484	16.117113
1.2670898	21.498302
1.2695312	28.66913
1.2719727	36.86965
1.2744141	45.687057
1.2768555	54.844517
1.2792969	64.12481
1.2817383	73.35471
1.2841797	82.4064
1.2866211	91.1894
1.2890625	99.62853
1.2915039	107.63438
1.2939453	115.07475
1.2963867	121.76407
1.2988281	127.47649
1.3012695	131.98576
1.3037109	135.11171
1.3061523	136.7559
1.3085938	136.90982
1.3110352	135.63896
1.3134766	133.0525
1.315918	129.27316
1.3183594	124.41891
1.3208008	118.60181
1.3232422	111.95355
1.3256836	104.66447
1.328125	97.01928
1.3305664	89.405396
1.3330078	82.28122
1.3354492	76.111046
1.3378906	71.277885
1.340332	67.997055
1.3427734	66.25571
1.3452148	65.81161
1.3476562	66.25981
1.3500977	67.13187
1.3525391	67.98545
1.3549805	68.462494
1.3574219	68.31861
1.3598633	67.43387
1.3623047	65.80846
1.3647461	63.550167
1.3671875	60.860058
1.3696289	58.014244
1.3720703	55.336987
1.3745117	53.1574
1.3769531	51.746742
1.3793945	51.25688
1.3818359	51.68861
1.3842773	52.915558
1.3867188	54.750854
1.3891602	57.018467
1.3916016	59.603184
1.394043	62.46963
1.3964844	65.66083
1.3989258	69.271
1.4013672	73.40199
1.4038086	78.109695
1.40625	83.36073
1.4086914	89.02088
1.4111328	94.86888
1.4135742	100.62492
1.4160156	105.98122
1.418457	110.62714
1.4208984	114.2738
1.4233398	116.66954
1.4257812	117.61231
1.4282227	116.95682
1.4306641	114.62272
1.4331055	110.60374
1.4355469	104.97795
1.4379883	97.91537
1.4404297	89.68662
1.4428711	80.682884
1.4453125	71.456535
1.4477539	62.799347
1.4501953	55.827927
1.4526367	51.926983
1.4550781	52.234386
1.4575195	56.849655
1.4599609	64.80434
1.4624023	74.828835
1.4648438	85.88228
1.4672852	97.22126
1.4697266	108.31453
1.472168	118.7608
1.4746094	128.24141
1.4770508	136.4991
1.4794922	143.32928
1.4819336	148.57173
1.484375	152.1028
1.4868164	153.82744
1.4892578	153.67532
1.4916992	151.60101
1.4941406	147.58595
1.496582	141.6435
1.4990234	133.82571
1.5014648	124.23838
1.5039062	113.06333
1.5063477	100.5886
1.5087891	87.25032
1.5112305	73.69535
1.5136719	60.89394
1.5161133	50.30527
1.5185547	43.870525
1.5209961	43.03032
1.5234375	47.065117
1.5258789	53.63363
1.5283203	60.641132
1.5307617	66.80772
1.5332031	71.458244
1.5356445	74.2933
1.5380859	75.25399
1.5405273	74.445404
1.5429688	72.08669
1.5454102	68.46989
1.5478516	63.921867
1.550293	58.76782
1.5527344	53.30149
1.5551758	47.767036
1.5576172	42.35002
1.5600586	37.177246
1.5625	32.323383
1.5649414	27.824661
1.5673828	23.691895
1.5698242	19.91708
1.5722656	16.468418
1.574707	13.284035
1.5771484	10.274836
1.5795898	7.345531
1.5820312	4.453336
1.5844727	2.0450304
1.5869141	3.2059324
1.5893555	6.546813
1.5917969	10.351453
1.5942383	14.418684
1.5966797	18.669619
1.5991211	23.03451
1.6015625	27.431839
1.6040039	31.756496
1.6064453	35.872303
1.6088867	39.611534
1.6113281	42.78599
1.6137695	45.206406
1.6162109	46.706707
1.6186523	47.17016
1.6210938	46.55465
1.6235352	44.91653
1.6259766	42.43579
1.628418	39.4343
1.6308594	36.37947
1.6333008	33.84679
1.6357422	32.395565
1.6381836	32.349888
1.640625	33.629856
1.6430664	35.821426
1.6455078	38.418743
1.6479492	41.017822
1.6503906	43.394203
1.652832	45.500458
1.6552734	47.429485
1.6577148	49.35886
1.6601562	51.483868
1.6625977	53.95745
1.6650391	56.85219
1.6674805	60.15035
1.6699219	63.76181
1.6723633	67.552895
1.6748047	71.37691
1.6772461	75.09854
1.6796875	78.59865
1.6821289	81.76784
1.6845703	84.489586
1.6870117	86.626
1.6894531	88.01389
1.6918945	88.46974
1.6943359	87.80257
1.6967773	85.83066
1.6992188	82.40524
1.7016602	77.437065
1.7041016	70.9229
1.706543	62.965416
1.7089844	53.786644
1.7114258	43.751022
1.7138672	33.44257
1.7163086	23.95806
1.71875	17.816862
1.7211914	18.715034
1.7236328	25.353369
1.7260742	33.82778
1.7285156	42.36541
1.730957	50.346523
1.7333984	57.54281
1.7358398	63.87928
1.7382812	69.34774
1.7407227	73.95793
1.7431641	77.7108
1.7456055	80.60325
1.7480469	82.66084
1.7504883	83.97908
1.7529297	84.743935
1.7553711	85.23143
1.7578125	85.79611
1.7602539	86.83433
1.7626953	88.70847
1.7651367	91.636604
1.7675781	95.61579
1.7700195	100.42614
1.7724609	105.70487
1.7749023	111.02544
1.7773438	115.95321
1.7797852	120.0872
1.7822266	123.09896
1.784668	124.75774
1.7871094	124.93382
1.7895508	123.58613
1.7919922	120.75023
1.7944336	116.53764
1.796875	111.13239
1.7993164	104.77896
1.8017578	97.75632
1.8041992	90.3525
1.8066406	82.846214
1.809082	75.48915
1.8115234	68.49096
1.8139648	61.999523
1.8164062	56.09486
1.8188477	50.79311
1.8212891	46.059326
1.8237305	41.820736
1.8261719	37.978138
1.8286133	34.421608
1.8310547	31.04758
1.8334961	27.782598
1.8359375	24.603294
1.8383789	21.556818
1.8408203	18.780294
1.8432617	16.510336
1.8457031	15.046218
1.8481445	14.609308
1.8505859	15.167533
1.8530273	16.442282
1.8554688	18.101442
1.8579102	19.904415
1.8603516	21.727774
1.862793	23.5366
1.8652344	25.336498
1.8676758	27.124218
1.8701172	28.86102
1.8725586	30.475039
1.875	31.885769
1.8774414	33.021263
1.8798828	33.82387
1.8823242	34.254517
1.8847656	34.30715
1.887207	34.02027
1.8896484	33.46533
1.8920898	32.714478
1.8945312	31.810564
1.8969727	30.765545
1.8994141	29.575333
1.9018555	28.223299
1.9042969	26.670975
1.9067383	24.858166
1.9091797	22.729485
1.9116211	20.259975
1.9140625	17.459604
1.9165039	14.363468
1.9189453	11.053245
1.9213867	7.7978444
1.9238281	5.6060495
1.9262695	6.567998
1.9287109	10.20032
1.9311523	14.864511
1.9335938	19.968163
1.9360352	25.27982
1.9384766	30.651907
1.940918	35.967014
1.9433594	41.1201
1.9458008	46.0024
1.9482422	50.490093
1.9506836	54.450127
1.953125	57.754364
1.9555664	60.293045
1.9580078	61.983162
1.9604492	62.778145
1.9628906	62.67836
1.965332	61.747208
1.9677734	60.12459
1.9702148	58.036343
1.9726562	55.791626
1.9750977	53.761185
1.9775391	52.333004
1.9799805	51.85167
1.9824219	52.546303
1.9848633	54.47154
1.9873047	57.49407
1.9897461	61.349754
1.9921875	65.73553
1.9946289	70.37526
1.9970703	75.034096
1.9995117	79.50766
2.0019531	83.61854
2.0043945	87.226944
2.006836	90.23457
2.0092773	92.56779
2.0117188	94.15859
2.0141602	94.939835
2.0166016	94.8575
2.019043	93.87714
2.0214844	91.97693
2.0239258	89.14047
2.0263672	85.36427
2.0288086	80.68245
2.03125	75.191345
2.0336914	69.06666
2.0361328	62.57858
2.0385742	56.120594
2.0410156	50.244812
2.043457	45.6573
2.0458984	43.070404
2.0483398	42.87096
2.0507812	44.843624
2.0532227	48.282185
2.055664	52.351315
2.0581055	56.334705
2.0605469	59.706944
2.0629883	62.128174
2.0654297	63.419834
2.067871	63.530334
2.0703125	62.506016
2.072754	60.471443
2.0751953	57.619186
2.0776367	54.19875
2.0800781	50.495453
2.0825195	46.80561
2.084961	43.41444
2.0874023	40.568233
2.0898438	38.438248
2.0922852	37.08399
2.0947266	36.44207
2.097168	36.353664
2.0996094	36.611553
2.1020508	37.007675
2.1044922	37.367317
2.1069336	37.567333
2.109375	37.535343
2.1118164	37.237453
2.1142578	36.67063
2.1166992	35.859985
2.1191406	34.857334
2.121582	33.73184
2.1240234	32.55643
2.1264648	31.397226
2.1289062	30.310835
2.1313477	29.342115
2.133789	28.519241
2.1362305	27.844067
2.1386719	27.28767
2.1411133	26.796434
2.1435547	26.304848
2.145996	25.748905
2.1484375	25.072777
2.150879	24.230062
2.1533203	23.189013
2.1557617	21.941795
2.1582031	20.514553
2.1606445	18.968037
2.163086	17.387518
2.1655273	15.872431
2.1679688	14.529041
2.1704102	13.457523
2.1728516	12.725426
2.175293	12.342585
2.1777344	12.276762
2.1801758	12.504536
2.1826172	13.043379
2.1850586	13.935781
2.1875	15.204598
2.1899414	16.822248
2.1923828	18.698843
2.1948242	20.685406
2.1972656	22.593971
2.199707	24.232376
2.2021484	25.438787
2.2045898	26.10167
2.2070312	26.169605
2.2094727	25.66581
2.211914	24.711563
2.2143555	23.54461
2.2167969	22.51102
2.2192383	22.006094
2.2216797	22.34873
2.224121	23.635633
2.2265625	25.701794
2.229004	28.226263
2.2314453	30.877361
2.2338867	33.39814
2.2363281	35.633343
2.2387695	37.52449
2.241211	39.09697
2.2436523	40.43821
2.2460938	41.667473
2.2485352	42.900803
2.2509766	44.221294
2.253418	45.656887
2.2558594	47.172028
2.2583008	48.67766
2.2607422	50.05761
2.2631836	51.19871
2.265625	52.009937
2.2680664	52.43145
2.2705078	52.439857
2.2729492	52.052933
2.2753906	51.322365
2.277832	50.31728
2.2802734	49.102436
2.2827148	47.724792
2.2851562	46.206043
2.2875977	44.538406
2.290039	42.684036
2.2924805	40.58535
2.2949219	38.183243
2.2973633	35.43576
2.2998047	32.327965
2.302246	28.875967
2.3046875	25.127142
2.307129	21.163198
2.3095703	17.10331
2.3120117	13.11625
2.3144531	9.467098
2.3168945	6.6826587
2.319336	5.750782
2.3217773	6.951159
2.3242188	9.086032
2.3266602	11.30864
2.3291016	13.319708
2.331543	15.032302
2.3339844	16.442957
2.3364258	17.585276
2.3388672	18.511452
2.3413086	19.281532
2.34375	19.957914
2.3461914	20.601406
2.3486328	21.2654
2.3510742	21.993135
2.3535156	22.815594
2.355957	23.751686
2.3583984	24.809298
2.3608398	25.984474
2.3632812	27.261187
2.3657227	28.611753
2.368164	30.000605
2.3706055	31.387796
2.3730469	32.73273
2.3754883	33.996773
2.3779297	35.145435
2.380371	36.152386
2.3828125	37.002945
2.385254	37.695705
2.3876953	38.240158
2.3901367	38.654636
2.3925781	38.963066
2.3950195	39.19187
2.397461	39.36466
2.3999023	39.495956
2.4023438	39.587242
2.4047852	39.625904
2.4072266	39.5865
2.409668	39.43299
2.4121094	39.12164
2.4145508	38.60707
2.4169922	37.847164
2.4194336	36.808807
2.421875	35.47034
2.4243164	33.825523
2.4267578	31.8879
2.4291992	29.696564
2.4316406	27.31991
2.434082	24.860794
2.4365234	22.463284
2.4389648	20.319824
2.4414062	18.667955
2.4438477	17.745737
2.446289	17.699625
2.4487305	18.498457
2.4511719	19.950972
2.4536133	21.801949
2.4560547	23.814621
2.458496	25.802792
2.4609375	27.63279
2.463379	29.215271
