
X-Axis: Frequency (hz)
Y-Axis: Fourier Amplitude (cm/s)
Number of Data Sets: 4


DATASET #1

Name: FAS H1 (cm/s)
Num Points: 2044
Info: 

X, Y Data:
0.009765625	0.07176253
0.012207031	0.10845519
0.014648438	0.16798063
0.017089844	0.25963148
0.01953125	0.39311585
0.021972656	0.57601964
0.024414062	0.81357986
0.026855469	1.1101662
0.029296875	1.4685308
0.03173828	1.8871535
0.034179688	2.359082
0.036621094	2.873236
0.0390625	3.4162707
0.041503906	3.973184
0.043945312	4.5273976
0.04638672	5.0611625
0.048828125	5.557095
0.05126953	6.0002804
0.053710938	6.3798404
0.056152344	6.688224
0.05859375	6.919245
0.061035156	7.068249
0.06347656	7.1354146
0.06591797	7.1278315
0.068359375	7.0563803
0.07080078	6.9308434
0.07324219	6.760203
0.075683594	6.5577765
0.078125	6.3424006
0.080566406	6.132111
0.08300781	5.937764
0.08544922	5.7650504
0.087890625	5.6211987
0.09033203	5.515285
0.09277344	5.450356
0.095214844	5.417261
0.09765625	5.3986754
0.10009766	5.3786893
0.10253906	5.34698
0.10498047	5.2941995
0.10742188	5.2094703
0.10986328	5.0897174
0.11230469	4.956453
0.11474609	4.863509
0.1171875	4.8861504
0.11962891	5.0981045
0.12207031	5.5504346
0.12451172	6.257596
0.12695312	7.1923547
0.12939453	8.294576
0.13183594	9.491191
0.13427734	10.714554
0.13671875	11.909405
0.13916016	13.029735
0.14160156	14.033903
0.14404297	14.884456
0.14648438	15.553071
0.14892578	16.025974
0.15136719	16.305443
0.1538086	16.406776
0.15625	16.353916
0.1586914	16.177555
0.16113281	15.916107
0.16357422	15.616264
0.16601562	15.328943
0.16845703	15.100001
0.17089844	14.959895
0.17333984	14.918088
0.17578125	14.96569
0.17822266	15.08451
0.18066406	15.256927
0.18310547	15.471617
0.18554688	15.72462
0.18798828	16.020004
0.19042969	16.372149
0.1928711	16.806957
0.1953125	17.356115
0.1977539	18.042576
0.20019531	18.862892
0.20263672	19.775818
0.20507812	20.704302
0.20751953	21.550762
0.20996094	22.21889
0.21240234	22.634481
0.21484375	22.761835
0.21728516	22.617802
0.21972656	22.285252
0.22216797	21.919476
0.22460938	21.731203
0.22705078	21.930002
0.22949219	22.63953
0.2319336	23.835546
0.234375	25.354893
0.2368164	26.962652
0.23925781	28.428816
0.24169922	29.582747
0.24414062	30.340633
0.24658203	30.708729
0.24902344	30.767673
0.25146484	30.643248
0.25390625	30.471287
0.25634766	30.363798
0.25878906	30.385134
0.26123047	30.545414
0.26367188	30.811705
0.26611328	31.129557
0.2685547	31.444128
0.2709961	31.714031
0.2734375	31.916998
0.2758789	32.04929
0.2783203	32.12208
0.28076172	32.157684
0.28320312	32.188232
0.28564453	32.256134
0.28808594	32.41267
0.29052734	32.708836
0.29296875	33.175663
0.29541016	33.79886
0.29785156	34.50112
0.30029297	35.145687
0.30273438	35.56633
0.30517578	35.616653
0.3076172	35.225418
0.3100586	34.44394
0.3125	33.47107
0.3149414	32.635834
0.3173828	32.31191
0.31982422	32.76618
0.32226562	34.019794
0.32470703	35.83569
0.32714844	37.83717
0.32958984	39.648453
0.33203125	40.97391
0.33447266	41.610264
0.33691406	41.421165
0.33935547	40.30606
0.34179688	38.19195
0.34423828	35.069633
0.3466797	31.092272
0.3491211	26.760256
0.3515625	23.198236
0.3540039	22.164005
0.3564453	24.708876
0.35888672	29.804487
0.36132812	35.584206
0.36376953	40.573906
0.36621094	43.805676
0.36865234	44.717358
0.37109375	43.097717
0.37353516	39.050507
0.37597656	32.950962
0.37841797	25.401917
0.38085938	17.266197
0.38330078	10.229371
0.3857422	9.064138
0.3881836	14.521817
0.390625	21.159672
0.3930664	27.211462
0.3955078	32.19502
0.39794922	35.854534
0.40039062	37.94087
0.40283203	38.1674
0.40527344	36.252464
0.40771484	32.023888
0.41015625	25.577147
0.41259766	17.594637
0.41503906	10.824311
0.41748047	13.004507
0.41992188	21.788004
0.42236328	30.618391
0.4248047	37.131252
0.4272461	40.091408
0.4296875	38.85266
0.4321289	33.38421
0.4345703	24.37975
0.43701172	13.696285
0.43945312	8.877762
0.44189453	17.328993
0.44433594	26.721128
0.44677734	32.988976
0.44921875	34.99233
0.45166016	32.55741
0.45410156	26.276009
0.45654297	17.477468
0.45898438	9.042278
0.46142578	9.727768
0.4638672	17.098293
0.4663086	23.220045
0.46875	26.379265
0.4711914	26.271666
0.4736328	23.25027
0.47607422	18.103048
0.47851562	11.84778
0.48095703	5.5669756
0.48339844	1.6817423
0.48583984	5.009728
0.48828125	7.662751
0.49072266	8.7645
0.49316406	8.586658
0.49560547	7.927839
0.49804688	8.107787
0.5004883	9.840271
0.5029297	12.294394
0.5053711	14.25383
0.5078125	14.844599
0.5102539	13.614272
0.5126953	10.570292
0.5151367	6.2431216
0.5175781	2.494847
0.52001953	4.9773283
0.52246094	8.595682
0.52490234	11.124188
0.52734375	12.694535
0.52978516	13.78987
0.53222656	14.486232
0.53466797	14.211239
0.5371094	12.406853
0.5395508	9.9553585
0.5419922	11.093755
0.5444336	17.530033
0.546875	25.427557
0.5493164	31.929518
0.5517578	35.482655
0.5541992	35.759575
0.5566406	33.890587
0.55908203	32.326878
0.56152344	33.29807
0.56396484	36.41523
0.56640625	39.17235
0.56884766	39.354538
0.57128906	36.120014
0.57373047	30.088785
0.5761719	23.211039
0.5786133	18.352373
0.5810547	17.069305
0.5834961	17.020754
0.5859375	15.156735
0.5883789	10.438292
0.5908203	3.4652548
0.5932617	4.520194
0.5957031	11.892126
0.59814453	17.964014
0.60058594	22.84868
0.60302734	27.239105
0.60546875	31.458357
0.60791016	34.924973
0.61035156	36.638264
0.61279297	36.0267
0.6152344	33.414024
0.6176758	29.880718
0.6201172	26.577269
0.6225586	23.913212
0.625	21.465258
0.6274414	18.679815
0.6298828	15.324778
0.6323242	11.359578
0.6347656	7.1141033
0.63720703	5.921419
0.63964844	11.103795
0.64208984	18.13044
0.64453125	25.017836
0.64697266	31.372034
0.64941406	37.4262
0.65185547	43.33335
0.6542969	48.722202
0.6567383	53.041462
0.6591797	56.288803
0.6616211	59.218647
0.6640625	62.586304
0.6665039	66.151474
0.6689453	68.7292
0.6713867	69.22156
0.6738281	67.401276
0.67626953	63.779274
0.67871094	58.87198
0.68115234	52.754105
0.68359375	45.49239
0.68603516	38.02117
0.68847656	32.40197
0.69091797	30.45842
0.6933594	31.759207
0.6958008	34.702816
0.6982422	38.667343
0.7006836	43.596073
0.703125	48.88195
0.7055664	53.446808
0.7080078	56.4522
0.7104492	57.597767
0.7128906	56.914696
0.71533203	54.51456
0.71777344	50.61914
0.72021484	45.751705
0.72265625	40.738605
0.72509766	36.376698
0.72753906	33.03043
0.72998047	30.596704
0.7324219	28.843647
0.7348633	27.643234
0.7373047	26.9013
0.7397461	26.444195
0.7421875	26.04356
0.7446289	25.501278
0.7470703	24.721342
0.7495117	23.801512
0.7519531	23.143875
0.75439453	23.4473
0.75683594	25.39706
0.75927734	29.204226
0.76171875	34.539906
0.76416016	40.85377
0.76660156	47.601997
0.76904297	54.275063
0.7714844	60.361473
0.7739258	65.35801
0.7763672	68.84812
0.7788086	70.590645
0.78125	70.54437
0.7836914	68.8155
0.7861328	65.59676
0.7885742	61.185818
0.7910156	56.08825
0.79345703	51.112743
0.79589844	47.313244
0.79833984	45.653046
0.80078125	46.47617
0.80322266	49.26506
0.80566406	52.973923
0.80810547	56.53105
0.8105469	59.141598
0.8129883	60.400402
0.8154297	60.27838
0.8178711	59.01277
0.8203125	56.97534
0.8227539	54.640278
0.8251953	52.672413
0.8276367	51.962116
0.8300781	53.372307
0.83251953	57.311398
0.83496094	63.62061
0.83740234	71.843216
0.83984375	81.404366
0.84228516	91.55429
0.84472656	101.34357
0.84716797	109.7941
0.8496094	116.14808
0.8520508	119.99895
0.8544922	121.24151
0.8569336	119.93291
0.859375	116.20605
0.8618164	110.2803
0.8642578	102.50281
0.8666992	93.32906
0.8691406	83.23944
0.87158203	72.66507
0.87402344	61.987972
0.87646484	51.599445
0.87890625	41.93909
0.88134766	33.465828
0.88378906	26.578045
0.88623047	21.536924
0.8886719	18.429739
0.8911133	17.207151
0.8935547	17.801445
0.8959961	20.168535
0.8984375	24.136404
0.9008789	29.31001
0.9033203	35.19202
0.9057617	41.356617
0.9082031	47.508224
0.91064453	53.3977
0.91308594	58.6948
0.91552734	62.96004
0.91796875	65.75747
0.92041016	66.82303
0.92285156	66.1751
0.92529297	64.12267
0.9277344	61.200825
0.9301758	58.078743
0.9326172	55.44354
0.9350586	53.850677
0.9375	53.563667
0.9399414	54.474224
0.9423828	56.157284
0.9448242	58.029316
0.9472656	59.54544
0.94970703	60.38306
0.95214844	60.552338
0.95458984	60.36458
0.95703125	60.250206
0.95947266	60.52698
0.96191406	61.272934
0.96435547	62.353622
0.9667969	63.50029
0.9692383	64.34564
0.9716797	64.44093
0.9741211	63.322376
0.9765625	60.625275
0.9790039	56.197243
0.9814453	50.18219
0.9838867	43.099556
0.9863281	35.970604
0.98876953	30.488308
0.99121094	28.720013
0.99365234	31.407005
0.99609375	37.02861
0.99853516	43.5697
1.0009766	49.643456
1.003418	54.431606
1.0058594	57.53806
1.0083008	58.948757
1.0107422	58.982925
1.0131836	58.146843
1.015625	56.914665
1.0180664	55.550617
1.0205078	54.08744
1.0229492	52.449806
1.0253906	50.591675
1.027832	48.53758
1.0302734	46.324795
1.0327148	43.92512
1.0351562	41.229687
1.0375977	38.122105
1.0400391	34.609074
1.0424805	30.961096
1.0449219	27.821482
1.0473633	26.177711
1.0498047	26.942503
1.0522461	30.281855
1.0546875	35.595757
1.0571289	42.08692
1.0595703	49.054157
1.0620117	55.88697
1.0644531	62.035515
1.0668945	67.02617
1.0693359	70.487236
1.0717773	72.14929
1.0742188	71.82632
1.0766602	69.39793
1.0791016	64.81313
1.081543	58.11267
1.0839844	49.46429
1.0864258	39.198994
1.0888672	27.86164
1.0913086	16.454487
1.09375	8.863295
1.0961914	14.369481
1.0986328	24.944693
1.1010742	35.735863
1.1035156	46.103306
1.105957	55.979687
1.1083984	65.38611
1.1108398	74.30331
1.1132812	82.63753
1.1157227	90.23089
1.1181641	96.88692
1.1206055	102.38639
1.1230469	106.48756
1.1254883	108.92949
1.1279297	109.45065
1.1303711	107.83149
1.1328125	103.94964
1.1352539	97.8302
1.1376953	89.67905
1.1401367	79.890945
1.1425781	69.02198
1.1450195	57.71045
1.1474609	46.544296
1.1499023	35.92525
1.1523438	26.077976
1.1547852	17.547983
1.1572266	13.175551
1.159668	17.520922
1.1621094	27.369516
1.1645508	38.98817
1.1669922	50.87054
1.1694336	62.048817
1.171875	71.717026
1.1743164	79.25928
1.1767578	84.33952
1.1791992	86.94585
1.1816406	87.36509
1.184082	86.09557
1.1865234	83.71519
1.1889648	80.72105
1.1914062	77.37773
1.1938477	73.64786
1.1962891	69.25799
1.1987305	63.869183
1.2011719	57.254635
1.2036133	49.41103
1.2060547	40.601658
1.2084961	31.367218
1.2109375	22.54706
1.2133789	15.356302
1.2158203	11.356367
1.2182617	10.878779
1.2207031	11.679594
1.2231445	12.172774
1.2255859	12.735195
1.2280273	14.789788
1.2304688	19.102863
1.2329102	25.134226
1.2353516	32.02567
1.237793	39.21859
1.2402344	46.522274
1.2426758	53.99699
1.2451172	61.75587
1.2475586	69.76222
1.25	77.715935
1.2524414	85.068054
1.2548828	91.13249
1.2573242	95.23776
1.2597656	96.8688
1.262207	95.76282
1.2646484	91.9492
1.2670898	85.73812
1.2695312	77.69516
1.2719727	68.64496
1.2744141	59.761024
1.2768555	52.73684
1.2792969	49.72756
1.2817383	52.307724
1.2841797	60.07036
1.2866211	71.120575
1.2890625	83.46773
1.2915039	95.522484
1.2939453	106.05331
1.2963867	114.11742
1.2988281	119.05325
1.3012695	120.50059
1.3037109	118.41132
1.3061523	113.04321
1.3085938	104.94559
1.3110352	94.95756
1.3134766	84.23472
1.315918	74.29784
1.3183594	66.99639
1.3208008	64.05507
1.3232422	66.04204
1.3256836	71.79791
1.328125	79.2217
1.3305664	86.31204
1.3330078	91.58689
1.3354492	94.126724
1.3378906	93.53961
1.340332	89.93415
1.3427734	83.91138
1.3452148	76.56174
1.3476562	69.417534
1.3500977	64.223206
1.3525391	62.34995
1.3549805	64.07005
1.3574219	68.49039
1.3598633	74.277115
1.3623047	80.294044
1.3647461	85.76897
1.3671875	90.212654
1.3696289	93.305534
1.3720703	94.821526
1.3745117	94.59622
1.3769531	92.53749
1.3793945	88.660736
1.3818359	83.11905
1.3842773	76.20699
1.3867188	68.32825
1.3891602	59.94343
1.3916016	51.515125
1.394043	43.470734
1.3964844	36.192295
1.3989258	30.046808
1.4013672	25.461834
1.4038086	22.970688
1.40625	22.996212
1.4086914	25.400724
1.4111328	29.486073
1.4135742	34.444973
1.4160156	39.617886
1.418457	44.51306
1.4208984	48.771942
1.4233398	52.140575
1.4257812	54.44944
1.4282227	55.597145
1.4306641	55.539368
1.4331055	54.27617
1.4355469	51.838688
1.4379883	48.27789
1.4404297	43.6574
1.4428711	38.05892
1.4453125	31.59273
1.4477539	24.410774
1.4501953	16.721842
1.4526367	8.8728695
1.4550781	3.1839814
1.4575195	8.696886
1.4599609	16.148893
1.4624023	23.141819
1.4648438	29.27353
1.4672852	34.266373
1.4697266	37.88668
1.472168	39.943874
1.4746094	40.310192
1.4770508	38.969112
1.4794922	36.09435
1.4819336	32.17309
1.484375	28.184832
1.4868164	25.734497
1.4892578	26.475449
1.4916992	30.561989
1.4941406	36.55848
1.496582	42.873127
1.4990234	48.38327
1.5014648	52.409992
1.5039062	54.62597
1.5063477	54.987843
1.5087891	53.6795
1.5112305	51.064888
1.5136719	47.646553
1.5161133	44.03171
1.5185547	40.875942
1.5209961	38.772823
1.5234375	38.079277
1.5258789	38.762653
1.5283203	40.411167
1.5307617	42.4026
1.5332031	44.093098
1.5356445	44.9393
1.5380859	44.561707
1.5405273	42.773407
1.5429688	39.583958
1.5454102	35.188972
1.5478516	29.958757
1.550293	24.444109
1.5527344	19.417557
1.5551758	15.885154
1.5576172	14.688946
1.5600586	15.546391
1.5625	17.220335
1.5649414	18.664957
1.5673828	19.318668
1.5698242	18.921404
1.5722656	17.375828
1.574707	14.687944
1.5771484	10.940319
1.5795898	6.2904716
1.5820312	1.4359281
1.5844727	5.450414
1.5869141	11.642535
1.5893555	17.853703
1.5917969	23.73607
1.5942383	29.008444
1.5966797	33.448605
1.5991211	36.900955
1.6015625	39.280758
1.6040039	40.588078
1.6064453	40.919014
1.6088867	40.458103
1.6113281	39.445717
1.6137695	38.125225
1.6162109	36.68682
1.6186523	35.218792
1.6210938	33.684357
1.6235352	31.940348
1.6259766	29.799713
1.628418	27.116611
1.6308594	23.853329
1.6333008	20.131649
1.6357422	16.318182
1.6381836	13.280853
1.640625	12.642778
1.6430664	15.457399
1.6455078	20.76217
1.6479492	27.280409
1.6503906	34.22162
1.652832	41.045567
1.6552734	47.30709
1.6577148	52.629383
1.6601562	56.72706
1.6625977	59.433224
1.6650391	60.712105
1.6674805	60.64705
1.6699219	59.41434
1.6723633	57.252426
1.6748047	54.43822
1.6772461	51.277718
1.6796875	48.1051
1.6821289	45.28083
1.6845703	43.161915
1.6870117	42.02494
1.6894531	41.960327
1.6918945	42.815258
1.6943359	44.249138
1.6967773	45.86639
1.6992188	47.332767
1.7016602	48.42461
1.7041016	49.02179
1.706543	49.07174
1.7089844	48.554237
1.7114258	47.4618
1.7138672	45.796425
1.7163086	43.588856
1.71875	40.932743
1.7211914	38.03129
1.7236328	35.244892
1.7260742	33.10746
1.7285156	32.24613
1.730957	33.142124
1.7333984	35.86518
1.7358398	40.06173
1.7382812	45.186317
1.7407227	50.707386
1.7431641	56.179768
1.7456055	61.240654
1.7480469	65.58428
1.7504883	68.94378
1.7529297	71.08702
1.7553711	71.825745
1.7578125	71.0288
1.7602539	68.63188
1.7626953	64.64111
1.7651367	59.135487
1.7675781	52.268715
1.7700195	44.264793
1.7724609	35.404686
1.7749023	26.008516
1.7773438	16.42113
1.7797852	7.040038
1.7822266	2.541748
1.784668	10.327216
1.7871094	17.286438
1.7895508	22.910185
1.7919922	27.074291
1.7944336	29.824018
1.796875	31.39441
1.7993164	32.23111
1.8017578	32.975998
1.8041992	34.35505
1.8066406	36.948517
1.809082	40.97862
1.8115234	46.29678
1.8139648	52.54164
1.8164062	59.28468
1.8188477	66.09547
1.8212891	72.55983
1.8237305	78.292015
1.8261719	82.94966
1.8286133	86.25361
1.8310547	88.00721
1.8334961	88.1165
1.8359375	86.60565
1.8383789	83.61797
1.8408203	79.40347
1.8432617	74.29159
1.8457031	68.65793
1.8481445	62.886242
1.8505859	57.319016
1.8530273	52.19795
1.8554688	47.61082
1.8579102	43.47337
1.8603516	39.57212
1.862793	35.651226
1.8652344	31.508173
1.8676758	27.068777
1.8701172	22.433762
1.8725586	17.912806
1.875	14.062474
1.8774414	11.644374
1.8798828	11.116876
1.8823242	11.88991
1.8847656	12.867341
1.887207	13.32408
1.8896484	13.033652
1.8920898	12.235007
1.8945312	11.717023
1.8969727	12.682539
1.8994141	15.775095
1.9018555	20.556728
1.9042969	26.279673
1.9067383	32.350853
1.9091797	38.343822
1.9116211	43.947247
1.9140625	48.931686
1.9165039	53.130383
1.9189453	56.425106
1.9213867	58.737885
1.9238281	60.02398
1.9262695	60.265537
1.9287109	59.46705
1.9311523	57.658318
1.9335938	54.90269
1.9360352	51.3111
1.9384766	47.06284
1.940918	42.443455
1.9433594	37.90836
1.9458008	34.153053
1.9482422	32.081345
1.9506836	32.46648
1.953125	35.420216
1.9555664	40.348064
1.9580078	46.431137
1.9604492	52.973076
1.9628906	59.456753
1.965332	65.504295
1.9677734	70.837204
1.9702148	75.25689
1.9726562	78.63758
1.9750977	80.92499
1.9775391	82.13894
1.9799805	82.366425
1.9824219	81.74344
1.9848633	80.42329
1.9873047	78.542465
1.9897461	76.19844
1.9921875	73.45004
1.9946289	70.339554
1.9970703	66.92659
1.9995117	63.321617
2.0019531	59.716053
2.0043945	56.41029
2.006836	53.82102
2.0092773	52.42378
2.0117188	52.59709
2.0141602	54.42922
2.0166016	57.64416
2.019043	61.7093
2.0214844	66.0123
2.0239258	69.99397
2.0263672	73.21341
2.0288086	75.37485
2.03125	76.33141
2.0336914	76.0724
2.0361328	74.7011
2.0385742	72.41139
2.0410156	69.46632
2.043457	66.17148
2.0458984	62.833435
2.0483398	59.70549
2.0507812	56.938053
2.0532227	54.54776
2.055664	52.423866
2.0581055	50.36574
2.0605469	48.14493
2.0629883	45.568535
2.0654297	42.528553
2.067871	39.027786
2.0703125	35.193123
2.072754	31.283308
2.0751953	27.690186
2.0776367	24.898743
2.0800781	23.338825
2.0825195	23.135136
2.084961	23.984425
2.0874023	25.336805
2.0898438	26.6655
2.0922852	27.597555
2.0947266	27.929
2.097168	27.60533
2.0996094	26.694098
2.1020508	25.35966
2.1044922	23.837452
2.1069336	22.405529
2.109375	21.344023
2.1118164	20.870556
2.1142578	21.072088
2.1166992	21.884771
2.1191406	23.144943
2.121582	24.665464
2.1240234	26.287584
2.1264648	27.896147
2.1289062	29.416813
2.1313477	30.807486
2.133789	32.05008
2.1362305	33.144173
2.1386719	34.10116
2.1411133	34.938313
2.1435547	35.67426
2.145996	36.323593
2.1484375	36.89568
2.150879	37.394276
2.1533203	37.81918
2.1557617	38.16964
2.1582031	38.44999
2.1606445	38.67751
2.163086	38.88663
2.1655273	39.129395
2.1679688	39.464127
2.1704102	39.93959
2.1728516	40.573402
2.175293	41.33815
2.1777344	42.157013
2.1801758	42.914455
2.1826172	43.47382
2.1850586	43.69617
2.1875	43.456493
2.1899414	42.657406
2.1923828	41.23995
2.1948242	39.189003
2.1972656	36.532146
2.199707	33.333324
2.2021484	29.685907
2.2045898	25.70955
2.2070312	21.55103
2.2094727	17.394775
2.211914	13.498577
2.2143555	10.299335
2.2167969	8.565898
2.2192383	8.980059
2.2216797	11.069338
2.224121	13.877064
2.2265625	16.84989
2.229004	19.747671
2.2314453	22.467754
2.2338867	24.96773
2.2363281	27.236763
2.2387695	29.283457
2.241211	31.128792
2.2436523	32.79756
2.2460938	34.311287
2.2485352	35.682735
2.2509766	36.911133
2.253418	37.980103
2.2558594	38.859516
2.2583008	39.51117
2.2607422	39.89626
2.2631836	39.9797
2.265625	39.73021
2.2680664	39.121536
2.2705078	38.13392
2.2729492	36.75769
2.2753906	34.994965
2.277832	32.86243
2.2802734	30.398975
2.2827148	27.676937
2.2851562	24.812597
2.2875977	21.968313
2.290039	19.34284
2.2924805	17.145546
2.2949219	15.54516
2.2973633	14.594852
2.2998047	14.182408
2.302246	14.07289
2.3046875	14.016249
2.307129	13.830857
2.3095703	13.424344
2.3120117	12.774079
2.3144531	11.89806
2.3168945	10.833894
2.319336	9.630511
2.3217773	8.355661
2.3242188	7.127518
2.3266602	6.183873
2.3291016	5.9295306
2.331543	6.699537
2.3339844	8.390798
2.3364258	10.655467
2.3388672	13.19623
2.3413086	15.803061
2.34375	18.319054
2.3461914	20.621805
2.3486328	22.61736
2.3510742	24.239285
2.3535156	25.446861
2.355957	26.222874
2.3583984	26.570127
2.3608398	26.50822
2.3632812	26.06896
2.3657227	25.291231
2.368164	24.217367
2.3706055	22.892519
2.3730469	21.365728
2.3754883	19.691849
2.3779297	17.930645
2.380371	16.144726
2.3828125	14.397488
2.385254	12.753263
2.3876953	11.278959
2.3901367	10.048089
2.3925781	9.143496
2.3950195	8.6513
2.397461	8.632371
2.3999023	9.084926
2.4023438	9.937526
2.4047852	11.080265
2.4072266	12.400826
2.409668	13.801681
2.4121094	15.203261
2.4145508	16.542324
2.4169922	17.768187
2.4194336	18.83965
2.421875	19.722063
2.4243164	20.386261
2.4267578	20.808817
2.4291992	20.973461
2.4316406	20.87241
2.434082	20.508156
2.4365234	19.893925
2.4389648	19.054249
2.4414062	18.025263
2.4438477	16.856531
2.446289	15.613844
2.4487305	14.380441
2.4511719	13.254724
2.4536133	12.34008
2.4560547	11.722963
2.458496	11.44164
2.4609375	11.461442
