
X-Axis: Frequency (hz)
Y-Axis: Fourier Amplitude (cm/s)
Number of Data Sets: 4


DATASET #1

Name: FAS H1 (cm/s)
Num Points: 2044
Info: 

X, Y Data:
0.009765625	0.054881055
0.012207031	0.087355286
0.014648438	0.12853213
0.017089844	0.18814556
0.01953125	0.27489987
0.021972656	0.38853383
0.024414062	0.5255858
0.026855469	0.68940413
0.029296875	0.89259815
0.03173828	1.1471342
0.034179688	1.4527776
0.036621094	1.7985921
0.0390625	2.1748993
0.041503906	2.581921
0.043945312	3.0252328
0.04638672	3.503305
0.048828125	4.0004134
0.05126953	4.493021
0.053710938	4.9643626
0.056152344	5.4119887
0.05859375	5.8418136
0.061035156	6.254568
0.06347656	6.638593
0.06591797	6.9773407
0.068359375	7.2630625
0.07080078	7.503842
0.07324219	7.7170258
0.075683594	7.9138227
0.078125	8.089706
0.080566406	8.228947
0.08300781	8.319139
0.08544922	8.362466
0.087890625	8.373242
0.09033203	8.365009
0.09277344	8.338748
0.095214844	8.283001
0.09765625	8.186496
0.10009766	8.051229
0.10253906	7.894874
0.10498047	7.7408733
0.10742188	7.603773
0.10986328	7.481492
0.11230469	7.359793
0.11474609	7.2238317
0.1171875	7.0673046
0.11962891	6.8932066
0.12207031	6.706901
0.12451172	6.507231
0.12695312	6.283259
0.12939453	6.0201755
0.13183594	5.7095532
0.13427734	5.3558908
0.13671875	4.9749947
0.13916016	4.5855656
0.14160156	4.1999063
0.14404297	3.820017
0.14648438	3.4419413
0.14892578	3.0661426
0.15136719	2.7066913
0.1538086	2.3894162
0.15625	2.1315532
0.1586914	1.9118766
0.16113281	1.6616517
0.16357422	1.2897825
0.16601562	0.71921104
0.16845703	0.18987557
0.17089844	1.210702
0.17333984	2.4875913
0.17578125	3.8739378
0.17822266	5.237996
0.18066406	6.4368677
0.18310547	7.3368087
0.18554688	7.8322287
0.18798828	7.8642273
0.19042969	7.4445395
0.1928711	6.7023907
0.1953125	5.975458
0.1977539	5.859597
0.20019531	6.806827
0.20263672	8.579962
0.20507812	10.6148
0.20751953	12.435261
0.20996094	13.701427
0.21240234	14.197009
0.21484375	13.84094
0.21728516	12.720303
0.21972656	11.14177
0.22216797	9.68834
0.22460938	9.12222
0.22705078	9.794025
0.22949219	11.21086
0.2319336	12.623965
0.234375	13.531495
0.2368164	13.711522
0.23925781	13.150272
0.24169922	11.99029
0.24414062	10.509232
0.24658203	9.120142
0.24902344	8.317502
0.25146484	8.392278
0.25390625	9.105958
0.25634766	9.895394
0.25878906	10.266287
0.26123047	9.930036
0.26367188	8.814888
0.26611328	7.0788937
0.2685547	5.1837454
0.2709961	4.085297
0.2734375	4.6010356
0.2758789	5.846579
0.2783203	6.767984
0.28076172	6.9487715
0.28320312	6.3386636
0.28564453	5.11128
0.28808594	3.5782628
0.29052734	2.0972435
0.29296875	0.9991919
0.29541016	0.8767381
0.29785156	1.8443196
0.30029297	3.337156
0.30273438	5.087609
0.30517578	6.69833
0.3076172	7.713305
0.3100586	7.7528462
0.3125	6.6318603
0.3149414	4.451199
0.3173828	1.8028167
0.31982422	2.360994
0.32226562	4.960517
0.32470703	6.7913904
0.32714844	7.4144015
0.32958984	6.7972665
0.33203125	5.2006493
0.33447266	3.094977
0.33691406	1.2600346
0.33935547	1.6804285
0.34179688	2.7612915
0.34423828	3.2077274
0.3466797	2.9985108
0.3491211	2.430155
0.3515625	2.0177324
0.3540039	2.0399985
0.3564453	2.1143064
0.35888672	1.9034637
0.36132812	1.4649603
0.36376953	1.0276892
0.36621094	0.6698024
0.36865234	0.9827517
0.37109375	2.3384657
0.37353516	4.031384
0.37597656	5.445221
0.37841797	6.009016
0.38085938	5.3835406
0.38330078	3.695712
0.3857422	2.3336284
0.3881836	4.0130143
0.390625	6.478525
0.3930664	8.123389
0.3955078	8.503376
0.39794922	7.761128
0.40039062	6.728243
0.40283203	6.8038354
0.40527344	8.319345
0.40771484	10.0214
0.41015625	10.804264
0.41259766	10.234224
0.41503906	8.538766
0.41748047	6.6181703
0.41992188	5.765708
0.42236328	6.128414
0.4248047	6.408237
0.4272461	5.796014
0.4296875	4.2981324
0.4321289	2.3819475
0.4345703	1.0717126
0.43701172	1.8041322
0.43945312	2.5979223
0.44189453	2.9465895
0.44433594	3.245803
0.44677734	3.7802494
0.44921875	4.1691256
0.45166016	3.8571305
0.45410156	2.707077
0.45654297	1.2778184
0.45898438	1.2710623
0.46142578	1.8593193
0.4638672	2.028529
0.4663086	2.7152658
0.46875	3.999517
0.4711914	5.0604296
0.4736328	5.736499
0.47607422	6.3562818
0.47851562	6.7667933
0.48095703	6.2643647
0.48339844	4.5649853
0.48583984	2.4230418
0.48828125	1.6659566
0.49072266	1.8181181
0.49316406	1.6859928
0.49560547	2.9357712
0.49804688	4.4798646
0.5004883	5.0745726
0.5029297	5.0130854
0.5053711	5.313839
0.5078125	5.808074
0.5102539	5.7244916
0.5126953	5.386322
0.5151367	5.5311627
0.5175781	5.8670187
0.52001953	6.2204146
0.52246094	7.1474266
0.52490234	8.280069
0.52734375	8.63463
0.52978516	8.158912
0.53222656	7.5893865
0.53466797	7.0924363
0.5371094	6.306177
0.5395508	5.585033
0.5419922	5.353381
0.5444336	5.075889
0.546875	4.7838774
0.5493164	5.2195063
0.5517578	5.863641
0.5541992	6.021278
0.5566406	5.9825034
0.55908203	5.9232135
0.56152344	5.4502263
0.56396484	4.5964284
0.56640625	3.7958446
0.56884766	2.9703383
0.57128906	1.8970383
0.57373047	1.2070167
0.5761719	1.9620306
0.5786133	3.433885
0.5810547	5.101116
0.5834961	6.6990957
0.5859375	8.256473
0.5883789	9.803275
0.5908203	11.129731
0.5932617	12.146622
0.5957031	12.981404
0.59814453	13.657373
0.60058594	14.108724
0.60302734	14.295259
0.60546875	14.06739
0.60791016	13.302658
0.61035156	12.145773
0.61279297	10.858351
0.6152344	9.703394
0.6176758	9.010137
0.6201172	8.909828
0.6225586	9.230209
0.625	9.746338
0.6274414	10.11331
0.6298828	9.951797
0.6323242	9.104336
0.6347656	7.603253
0.63720703	5.688399
0.63964844	4.131522
0.64208984	4.263045
0.64453125	5.8605223
0.64697266	7.614073
0.64941406	8.879139
0.65185547	9.443027
0.6542969	9.264287
0.6567383	8.37438
0.6591797	6.903607
0.6616211	5.0688863
0.6640625	3.1142082
0.6665039	1.31375
0.6689453	0.2894644
0.6713867	0.9912978
0.6738281	1.1799217
0.67626953	0.814152
0.67871094	0.6456299
0.68115234	1.6922411
0.68359375	2.9602988
0.68603516	4.0323973
0.68847656	4.645598
0.69091797	4.6464033
0.6933594	4.024488
0.6958008	3.0118566
0.6982422	2.4216652
0.7006836	3.3480647
0.703125	5.1356087
0.7055664	6.915604
0.7080078	8.231598
0.7104492	8.814104
0.7128906	8.604612
0.71533203	7.884189
0.71777344	7.369158
0.72021484	7.924252
0.72265625	9.686523
0.72509766	12.055663
0.72753906	14.445881
0.72998047	16.472204
0.7324219	17.895601
0.7348633	18.598507
0.7373047	18.57967
0.7397461	17.943426
0.7421875	16.853025
0.7446289	15.499388
0.7470703	14.073403
0.7495117	12.718637
0.7519531	11.492957
0.75439453	10.333915
0.75683594	9.121814
0.75927734	7.7599297
0.76171875	6.1933093
0.76416016	4.4264936
0.76660156	2.5103846
0.76904297	0.5750423
0.7714844	1.2383423
0.7739258	2.6981273
0.7763672	3.7293043
0.7788086	4.3559737
0.78125	4.719402
0.7836914	4.985257
0.7861328	5.2687774
0.7885742	5.5513315
0.7910156	5.727073
0.79345703	5.6621175
0.79589844	5.2490773
0.79833984	4.467569
0.80078125	3.426597
0.80322266	2.5712042
0.80566406	2.7231019
0.80810547	3.782663
0.8105469	4.978861
0.8129883	6.008893
0.8154297	6.9124475
0.8178711	7.83534
0.8203125	8.870522
0.8227539	9.971915
0.8251953	11.020799
0.8276367	11.905613
0.8300781	12.544524
0.83251953	12.896071
0.83496094	12.937341
0.83740234	12.65551
0.83984375	12.052176
0.84228516	11.143044
0.84472656	9.969776
0.84716797	8.591863
0.8496094	7.053827
0.8520508	5.3647223
0.8544922	3.5118613
0.8569336	1.5095603
0.859375	0.55898815
0.8618164	2.5194674
0.8642578	4.21553
0.8666992	5.5391326
0.8691406	6.5023627
0.87158203	7.2276645
0.87402344	7.8384876
0.87646484	8.34659
0.87890625	8.622165
0.88134766	8.501762
0.88378906	7.916903
0.88623047	6.9209375
0.8886719	5.6662416
0.8911133	4.3220835
0.8935547	3.0064085
0.8959961	1.806462
0.8984375	1.1805106
0.9008789	2.1305203
0.9033203	3.8144438
0.9057617	5.69706
0.9082031	7.5398293
0.91064453	9.160861
0.91308594	10.427608
0.91552734	11.298759
0.91796875	11.808938
0.92041016	11.99225
0.92285156	11.838327
0.92529297	11.296871
0.9277344	10.52073
0.9301758	10.243979
0.9326172	11.68291
0.9350586	15.222685
0.9375	19.985294
0.9399414	24.893604
0.9423828	29.099482
0.9448242	32.058865
0.9472656	33.565155
0.94970703	33.699066
0.95214844	32.753075
0.95458984	31.065172
0.95703125	28.868052
0.95947266	26.269657
0.96191406	23.339386
0.96435547	20.320053
0.9667969	17.765444
0.9692383	16.389324
0.9716797	16.486109
0.9741211	17.49099
0.9765625	18.511436
0.9790039	18.922619
0.9814453	18.464539
0.9838867	17.113605
0.9863281	14.917087
0.98876953	11.939686
0.99121094	8.290503
0.99365234	4.202355
0.99609375	1.1419407
0.99853516	4.519987
1.0009766	7.9753284
1.003418	10.632971
1.0058594	12.39966
1.0083008	13.37975
1.0107422	13.78172
1.0131836	13.819053
1.015625	13.608771
1.0180664	13.159705
1.0205078	12.433402
1.0229492	11.404017
1.0253906	10.107778
1.027832	8.637415
1.0302734	7.1137486
1.0327148	5.6776595
1.0351562	4.4738207
1.0375977	3.614337
1.0400391	3.0890229
1.0424805	2.7038813
1.0449219	2.2122667
1.0473633	1.4933643
1.0498047	0.7826295
1.0522461	1.390473
1.0546875	2.7876236
1.0571289	4.3397846
1.0595703	5.9059677
1.0620117	7.40453
1.0644531	8.773629
1.0668945	9.975093
1.0693359	11.007678
1.0717773	11.906157
1.0742188	12.740889
1.0766602	13.603129
1.0791016	14.57901
1.081543	15.743162
1.0839844	17.123404
1.0864258	18.675114
1.0888672	20.24885
1.0913086	21.587755
1.09375	22.41167
1.0961914	22.499239
1.0986328	21.80312
1.1010742	20.529383
1.1035156	19.147154
1.105957	18.305643
1.1083984	18.485666
1.1108398	19.64662
1.1132812	21.26979
1.1157227	22.728666
1.1181641	23.550407
1.1206055	23.454903
1.1230469	22.361685
1.1254883	20.359486
1.1279297	17.684847
1.1303711	14.689175
1.1328125	11.764881
1.1352539	9.286704
1.1376953	7.5162306
1.1401367	6.5450244
1.1425781	6.26459
1.1450195	6.3998384
1.1474609	6.63048
1.1499023	6.664429
1.1523438	6.330421
1.1547852	5.641192
1.1572266	4.8906956
1.159668	4.7219725
1.1621094	5.6709995
1.1645508	7.5450163
1.1669922	9.903846
1.1694336	12.454113
1.171875	14.954554
1.1743164	17.145138
1.1767578	18.770102
1.1791992	19.637074
1.1816406	19.702305
1.184082	19.086222
1.1865234	18.050648
1.1889648	16.94462
1.1914062	16.070356
1.1938477	15.584045
1.1962891	15.413009
1.1987305	15.303135
1.2011719	14.978463
1.2036133	14.236341
1.2060547	13.03233
1.2084961	11.468381
1.2109375	9.749363
1.2133789	8.137033
1.2158203	6.837203
1.2182617	5.934764
1.2207031	5.331176
1.2231445	4.8260813
1.2255859	4.253419
1.2280273	3.5202482
1.2304688	2.6609695
1.2329102	1.8778875
1.2353516	1.7203395
1.237793	2.3911157
1.2402344	3.3164568
1.2426758	4.1310906
1.2451172	4.6767497
1.2475586	4.8919377
1.25	4.7850943
1.2524414	4.474734
1.2548828	4.1747437
1.2573242	4.1223884
1.2597656	4.3581347
1.262207	4.6584883
1.2646484	4.745959
1.2670898	4.4227705
1.2695312	3.6269565
1.2719727	2.388719
1.2744141	0.7956466
1.2768555	1.089006
1.2792969	3.151732
1.2817383	5.375238
1.2841797	7.7142234
1.2866211	10.105769
1.2890625	12.436181
1.2915039	14.587047
1.2939453	16.432928
1.2963867	17.875544
1.2988281	18.868359
1.3012695	19.395433
1.3037109	19.489702
1.3061523	19.195807
1.3085938	18.561005
1.3110352	17.64589
1.3134766	16.520739
1.315918	15.304645
1.3183594	14.134872
1.3208008	13.124316
1.3232422	12.312797
1.3256836	11.655699
1.328125	11.119718
1.3305664	10.756548
1.3330078	10.721976
1.3354492	11.156166
1.3378906	12.035983
1.340332	13.157671
1.3427734	14.238097
1.3452148	15.027882
1.3476562	15.351451
1.3500977	15.129171
1.3525391	14.366092
1.3549805	13.133162
1.3574219	11.545566
1.3598633	9.739915
1.3623047	7.9002447
1.3647461	6.306355
1.3671875	5.3894954
1.3696289	5.446143
1.3720703	6.164983
1.3745117	6.9784446
1.3769531	7.5073576
1.3793945	7.600087
1.3818359	7.219095
1.3842773	6.3908367
1.3867188	5.2024956
1.3891602	3.8368466
1.3916016	2.7916958
1.394043	2.9846122
1.3964844	4.2836223
1.3989258	5.8396807
1.4013672	7.2787232
1.4038086	8.488547
1.40625	9.489178
1.4086914	10.370295
1.4111328	11.220352
1.4135742	12.075584
1.4160156	12.883416
1.418457	13.542316
1.4208984	13.94914
1.4233398	14.028109
1.4257812	13.754663
1.4282227	13.13921
1.4306641	12.22974
1.4331055	11.112649
1.4355469	9.901352
1.4379883	8.731458
1.4404297	7.7223935
1.4428711	6.9412494
1.4453125	6.367496
1.4477539	5.914277
1.4501953	5.503787
1.4526367	5.143998
1.4550781	4.977184
1.4575195	5.190418
1.4599609	5.8463006
1.4624023	6.819826
1.4648438	7.929024
1.4672852	9.0152445
1.4697266	9.954874
1.472168	10.65975
1.4746094	11.075206
1.4770508	11.206355
1.4794922	11.101848
1.4819336	10.835781
1.484375	10.489489
1.4868164	10.13279
1.4892578	9.841037
1.4916992	9.68233
1.4941406	9.706474
1.496582	9.929558
1.4990234	10.316469
1.5014648	10.803971
1.5039062	11.302521
1.5063477	11.713395
1.5087891	11.952623
1.5112305	11.956098
1.5136719	11.704923
1.5161133	11.221567
1.5185547	10.549413
1.5209961	9.74233
1.5234375	8.833963
1.5258789	7.837035
1.5283203	6.7567873
1.5307617	5.5976686
1.5332031	4.3984294
1.5356445	3.2509468
1.5380859	2.3702397
1.5405273	2.1546178
1.5429688	2.6878946
1.5454102	3.5579462
1.5478516	4.49484
1.550293	5.42555
1.5527344	6.3476105
1.5551758	7.277001
1.5576172	8.2238245
1.5600586	9.174944
1.5625	10.106451
1.5649414	10.988008
1.5673828	11.791632
1.5698242	12.497657
1.5722656	13.089112
1.574707	13.555338
1.5771484	13.892013
1.5795898	14.102953
1.5820312	14.197474
1.5844727	14.18433
1.5869141	14.069324
1.5893555	13.848302
1.5917969	13.506626
1.5942383	13.022255
1.5966797	12.36963
1.5991211	11.534677
1.6015625	10.525533
1.6040039	9.382633
1.6064453	8.194297
1.6088867	7.0860286
1.6113281	6.207089
1.6137695	5.6782684
1.6162109	5.5004487
1.6186523	5.546886
1.6210938	5.634167
1.6235352	5.6190104
1.6259766	5.418513
1.628418	4.995906
1.6308594	4.356671
1.6333008	3.5184581
1.6357422	2.5235646
1.6381836	1.4515896
1.640625	0.59271467
1.6430664	1.108212
1.6455078	2.0535426
1.6479492	2.9087124
1.6503906	3.6303844
1.652832	4.223599
1.6552734	4.6898575
1.6577148	5.0199046
1.6601562	5.1813526
1.6625977	5.1452994
1.6650391	4.89338
1.6674805	4.429778
1.6699219	3.7937157
1.6723633	3.0540953
1.6748047	2.3530047
1.6772461	1.9497888
1.6796875	2.1295512
1.6821289	2.7826653
1.6845703	3.6157796
1.6870117	4.4652205
1.6894531	5.240571
1.6918945	5.889116
1.6943359	6.364079
1.6967773	6.628387
1.6992188	6.6630344
1.7016602	6.4617634
1.7041016	6.0509496
1.706543	5.4889536
1.7089844	4.8751035
1.7114258	4.3688626
1.7138672	4.1558766
1.7163086	4.3626013
1.71875	4.935788
1.7211914	5.7054873
1.7236328	6.5087795
1.7260742	7.22456
1.7285156	7.7961807
1.730957	8.211071
1.7333984	8.500471
1.7358398	8.729881
1.7382812	8.966389
1.7407227	9.278672
1.7431641	9.699908
1.7456055	10.227935
1.7480469	10.831958
1.7504883	11.441725
1.7529297	11.9893
1.7553711	12.409604
1.7578125	12.663571
1.7602539	12.758429
1.7626953	12.725245
1.7651367	12.632031
1.7675781	12.547697
1.7700195	12.524383
1.7724609	12.594009
1.7749023	12.746386
1.7773438	12.954121
1.7797852	13.169743
1.7822266	13.337292
1.784668	13.406985
1.7871094	13.328519
1.7895508	13.064307
1.7919922	12.589483
1.7944336	11.894993
1.796875	11.002743
1.7993164	9.967371
1.8017578	8.87787
1.8041992	7.862981
1.8066406	7.0622597
1.809082	6.5926824
1.8115234	6.4878464
1.8139648	6.6697974
1.8164062	7.0107136
1.8188477	7.3793387
1.8212891	7.690036
1.8237305	7.8843236
1.8261719	7.9271526
1.8286133	7.8100243
1.8310547	7.527111
1.8334961	7.101825
1.8359375	6.56478
1.8383789	5.952727
1.8408203	5.3141384
1.8432617	4.6725388
1.8457031	4.053323
1.8481445	3.4745493
1.8505859	2.9558058
1.8530273	2.5545359
1.8554688	2.332139
1.8579102	2.3194044
1.8603516	2.4789362
1.862793	2.7134972
1.8652344	2.9400468
1.8676758	3.109502
1.8701172	3.1813922
1.8725586	3.1357412
1.875	2.955282
1.8774414	2.626309
1.8798828	2.1591418
1.8823242	1.5749892
1.8847656	0.949298
1.887207	0.64865756
1.8896484	1.1635494
1.8920898	1.9488693
1.8945312	2.7636178
1.8969727	3.5438616
1.8994141	4.247284
1.9018555	4.8420076
1.9042969	5.2936764
1.9067383	5.5724697
1.9091797	5.662672
1.9116211	5.557657
1.9140625	5.274253
1.9165039	4.8516173
1.9189453	4.344757
1.9213867	3.8301218
1.9238281	3.3865943
1.9262695	3.0881999
1.9287109	2.9823015
1.9311523	3.0675344
1.9335938	3.3184314
1.9360352	3.6951554
1.9384766	4.1628747
1.940918	4.6873884
1.9433594	5.226317
1.9458008	5.747264
1.9482422	6.2200174
1.9506836	6.632414
1.953125	6.990511
1.9555664	7.2953377
1.9580078	7.5524335
1.9604492	7.750606
1.9628906	7.87393
1.965332	7.919651
1.9677734	7.889816
1.9702148	7.8238864
1.9726562	7.7662544
1.9750977	7.756464
1.9775391	7.8188086
1.9799805	7.9302382
1.9824219	8.066051
1.9848633	8.185224
1.9873047	8.271407
1.9897461	8.329335
1.9921875	8.360717
1.9946289	8.396657
1.9970703	8.443858
1.9995117	8.511803
2.0019531	8.589709
2.0043945	8.642318
2.006836	8.639634
2.0092773	8.524875
2.0117188	8.2719345
2.0141602	7.864126
2.0166016	7.30735
2.019043	6.6470394
2.0214844	5.9220424
2.0239258	5.1954784
2.0263672	4.505033
2.0288086	3.8645408
2.03125	3.2798476
2.0336914	2.7386172
2.0361328	2.2980301
2.0385742	2.0801594
2.0410156	2.2361846
2.043457	2.7335033
2.0458984	3.3988311
2.0483398	4.0851192
2.0507812	4.68262
2.0532227	5.133983
2.055664	5.3982563
2.0581055	5.4668
2.0605469	5.356636
2.0629883	5.0899844
2.0654297	4.708721
2.067871	4.238132
2.0703125	3.6950142
2.072754	3.0921767
2.0751953	2.426449
2.0776367	1.7241013
2.0800781	1.0651847
2.0825195	0.8135876
2.084961	1.2911618
2.0874023	2.00075
2.0898438	2.6961334
2.0922852	3.2931068
2.0947266	3.762718
2.097168	4.083205
2.0996094	4.259523
2.1020508	4.311191
2.1044922	4.2605553
2.1069336	4.149539
2.109375	4.01044
2.1118164	3.8830402
2.1142578	3.801959
2.1166992	3.7861023
2.1191406	3.8544836
2.121582	4.0020537
2.1240234	4.2264633
2.1264648	4.5103984
2.1289062	4.8315783
2.1313477	5.170169
2.133789	5.495405
2.1362305	5.791428
2.1386719	6.037941
2.1411133	6.2222652
2.1435547	6.3385816
2.145996	6.377035
2.1484375	6.3412786
2.150879	6.233031
2.1533203	6.0643525
2.1557617	5.8540726
2.1582031	5.6180534
2.1606445	5.379392
2.163086	5.148923
2.1655273	4.9346557
2.1679688	4.739192
2.1704102	4.557554
2.1728516	4.3916435
2.175293	4.2391996
2.1777344	4.10695
2.1801758	4.004059
2.1826172	3.9384623
2.1850586	3.9226623
2.1875	3.954366
2.1899414	4.0279384
2.1923828	4.122386
2.1948242	4.2062225
2.1972656	4.2499123
2.199707	4.218563
2.2021484	4.094564
2.2045898	3.8672795
2.2070312	3.5435145
2.2094727	3.1514685
2.211914	2.72848
2.2143555	2.3424325
2.2167969	2.0720115
2.2192383	1.9971668
2.2216797	2.1385636
2.224121	2.4358263
2.2265625	2.813619
2.229004	3.207509
2.2314453	3.5792668
2.2338867	3.8977952
2.2363281	4.1406755
2.2387695	4.293323
2.241211	4.344404
2.2436523	4.293673
2.2460938	4.1465964
2.2485352	3.9178135
2.2509766	3.6296322
2.253418	3.306119
2.2558594	2.9758162
2.2583008	2.6646485
2.2607422	2.392228
2.2631836	2.1717935
2.265625	2.0006535
2.2680664	1.8667495
2.2705078	1.7497952
2.2729492	1.6296505
2.2753906	1.4965731
2.277832	1.3481815
2.2802734	1.1968317
2.2827148	1.0623487
2.2851562	0.9691432
2.2875977	0.94078696
2.290039	0.9828202
2.2924805	1.0823592
2.2949219	1.2150916
2.2973633	1.3548135
2.2998047	1.4807092
2.302246	1.5755002
2.3046875	1.6296815
2.307129	1.6387647
2.3095703	1.6049275
2.3120117	1.5361192
2.3144531	1.4421281
2.3168945	1.3380473
2.319336	1.2355502
2.3217773	1.1452022
2.3242188	1.0709128
2.3266602	1.0118114
2.3291016	0.9662838
2.331543	0.9260449
2.3339844	0.8887005
2.3364258	0.84616214
2.3388672	0.7926084
2.3413086	0.7277684
2.34375	0.6470362
2.3461914	0.55884117
2.3486328	0.47329405
2.3510742	0.40388367
2.3535156	0.3760168
2.355957	0.4011826
2.3583984	0.47260997
2.3608398	0.5780024
2.3632812	0.7000681
2.3657227	0.8349149
2.368164	0.98141104
2.3706055	1.1336331
2.3730469	1.2973187
2.3754883	1.4652935
2.3779297	1.6358881
2.380371	1.8078698
2.3828125	1.9703525
2.385254	2.125216
2.3876953	2.2602732
2.3901367	2.3688517
2.3925781	2.4454267
2.3950195	2.4735115
2.397461	2.4523497
2.3999023	2.3718886
2.4023438	2.2338417
2.4047852	2.045613
2.4072266	1.8112941
2.409668	1.5539716
2.4121094	1.2846437
2.4145508	1.0261463
2.4169922	0.80285555
2.4194336	0.63412124
2.421875	0.54738724
2.4243164	0.5341542
2.4267578	0.57958907
2.4291992	0.65137416
2.4316406	0.74366266
2.434082	0.84834105
2.4365234	0.9605982
2.4389648	1.0830467
2.4414062	1.2032797
2.4438477	1.3247187
2.446289	1.4390668
2.4487305	1.5424267
2.4511719	1.6380582
2.4536133	1.7186824
