
X-Axis: Frequency (hz)
Y-Axis: Fourier Amplitude (cm/s)
Number of Data Sets: 4


DATASET #1

Name: FAS H1 (cm/s)
Num Points: 2044
Info: 

X, Y Data:
0.009765625	1.0799335
0.012207031	1.431674
0.014648438	1.7590587
0.017089844	2.0271962
0.01953125	2.2117386
0.021972656	2.307161
0.024414062	2.338189
0.026855469	2.3688827
0.029296875	2.485595
0.03173828	2.7345846
0.034179688	3.0687041
0.036621094	3.3745604
0.0390625	3.5397341
0.041503906	3.5036721
0.043945312	3.2919939
0.04638672	3.0446858
0.048828125	3.0047853
0.05126953	3.3572838
0.053710938	4.0404677
0.056152344	4.8551183
0.05859375	5.63124
0.061035156	6.2586937
0.06347656	6.66936
0.06591797	6.8229084
0.068359375	6.7043705
0.07080078	6.329277
0.07324219	5.74709
0.075683594	5.031887
0.078125	4.257455
0.080566406	3.4782412
0.08300781	2.7832072
0.08544922	2.502475
0.087890625	3.145029
0.09033203	4.5943336
0.09277344	6.4072056
0.095214844	8.298694
0.09765625	10.153082
0.10009766	11.993204
0.10253906	13.892015
0.10498047	15.830499
0.10742188	17.609398
0.10986328	18.893787
0.11230469	19.355095
0.11474609	18.826534
0.1171875	17.408989
0.11962891	15.485745
0.12207031	13.599199
0.12451172	12.149917
0.12695312	11.069778
0.12939453	9.881515
0.13183594	8.153829
0.13427734	5.9288535
0.13671875	4.2503157
0.13916016	5.1193395
0.14160156	7.644137
0.14404297	10.222848
0.14648438	12.571837
0.14892578	15.092501
0.15136719	18.313423
0.1538086	22.330637
0.15625	26.67559
0.1586914	30.62487
0.16113281	33.56306
0.16357422	35.21534
0.16601562	35.720825
0.16845703	35.525867
0.17089844	35.107418
0.17333984	34.661007
0.17578125	33.99565
0.17822266	32.7329
0.18066406	30.620642
0.18310547	27.723051
0.18554688	24.407684
0.18798828	21.174381
0.19042969	18.429008
0.1928711	16.34983
0.1953125	14.970299
0.1977539	14.385884
0.20019531	14.776592
0.20263672	16.132929
0.20507812	18.07341
0.20751953	20.018946
0.20996094	21.455563
0.21240234	22.087908
0.21484375	21.91105
0.21728516	21.236572
0.21972656	20.629887
0.22216797	20.639523
0.22460938	21.356157
0.22705078	22.251677
0.22949219	22.548105
0.2319336	21.728971
0.234375	19.891935
0.2368164	17.916101
0.23925781	17.180727
0.24169922	18.303762
0.24414062	20.272713
0.24658203	21.564947
0.24902344	21.23677
0.25146484	19.16855
0.25390625	16.078068
0.25634766	13.492461
0.25878906	13.030542
0.26123047	14.461237
0.26367188	16.048847
0.26611328	16.64277
0.2685547	16.18868
0.2709961	15.594958
0.2734375	16.193497
0.2758789	18.43048
0.2783203	21.405489
0.28076172	23.953722
0.28320312	25.375631
0.28564453	25.498066
0.28808594	24.523544
0.29052734	22.84166
0.29296875	20.867105
0.29541016	18.942701
0.29785156	17.294737
0.30029297	15.989665
0.30273438	14.893094
0.30517578	13.707135
0.3076172	12.113461
0.3100586	9.96547
0.3125	7.48101
0.3149414	5.4938135
0.3173828	5.5011826
0.31982422	7.5990815
0.32226562	10.457207
0.32470703	13.160777
0.32714844	15.033583
0.32958984	15.651562
0.33203125	15.040748
0.33447266	13.771943
0.33691406	12.979894
0.33935547	13.800611
0.34179688	15.932417
0.34423828	17.813805
0.3466797	18.183659
0.3491211	16.83068
0.3515625	14.59646
0.3540039	12.815166
0.3564453	12.088432
0.35888672	11.541015
0.36132812	9.926529
0.36376953	6.8503175
0.36621094	3.771828
0.36865234	5.6351647
0.37109375	9.793786
0.37353516	13.277088
0.37597656	15.612887
0.37841797	16.824226
0.38085938	16.92017
0.38330078	15.785936
0.3857422	13.407095
0.3881836	10.324898
0.390625	8.277408
0.3930664	9.535121
0.3955078	13.368692
0.39794922	18.197435
0.40039062	23.40938
0.40283203	28.506218
0.40527344	32.838814
0.40771484	35.859787
0.41015625	37.431602
0.41259766	37.942734
0.41503906	38.067112
0.41748047	38.208473
0.41992188	38.15092
0.42236328	37.350586
0.4248047	35.48665
0.4272461	32.68686
0.4296875	29.357286
0.4321289	25.873236
0.4345703	22.410843
0.43701172	19.076015
0.43945312	16.2738
0.44189453	15.014221
0.44433594	16.293037
0.44677734	19.668356
0.44921875	23.644924
0.45166016	26.819103
0.45410156	28.17533
0.45654297	27.146484
0.45898438	23.770828
0.46142578	18.955143
0.4638672	14.774902
0.4663086	13.737522
0.46875	15.305638
0.4711914	16.597479
0.4736328	16.160934
0.47607422	14.225537
0.47851562	12.002638
0.48095703	10.616364
0.48339844	9.8429575
0.48583984	8.973139
0.48828125	9.02694
0.49072266	11.566835
0.49316406	15.157265
0.49560547	17.525984
0.49804688	17.59181
0.5004883	15.57544
0.5029297	12.628113
0.5053711	10.046296
0.5078125	8.201073
0.5102539	6.7132964
0.5126953	6.6148834
0.5151367	9.476958
0.5175781	13.898158
0.52001953	18.55587
0.52246094	23.418114
0.52490234	28.810392
0.52734375	34.288204
0.52978516	38.49808
0.53222656	40.031536
0.53466797	38.401165
0.5371094	34.630936
0.5395508	31.165394
0.5419922	30.384981
0.5444336	32.090763
0.546875	33.773872
0.5493164	33.113663
0.5517578	29.088823
0.5541992	22.208492
0.5566406	15.303756
0.55908203	15.110712
0.56152344	22.363806
0.56396484	30.649624
0.56640625	37.084293
0.56884766	40.77516
0.57128906	41.65657
0.57373047	40.129776
0.5761719	36.848713
0.5786133	32.59468
0.5810547	28.233744
0.5834961	24.660873
0.5859375	22.616955
0.5883789	22.419298
0.5908203	23.829584
0.5932617	26.169565
0.5957031	28.523222
0.59814453	29.943691
0.60058594	29.66313
0.60302734	27.254972
0.60546875	22.716953
0.60791016	16.482676
0.61035156	9.352867
0.61279297	2.4004092
0.6152344	3.9281874
0.6176758	8.438179
0.6201172	11.537041
0.6225586	13.844522
0.625	16.16691
0.6274414	18.923592
0.6298828	21.964375
0.6323242	24.636143
0.6347656	25.859934
0.63720703	24.462492
0.63964844	19.850346
0.64208984	13.115153
0.64453125	11.020214
0.64697266	19.706583
0.64941406	31.341839
0.65185547	42.07922
0.6542969	50.709618
0.6567383	57.294968
0.6591797	62.556576
0.6616211	66.858986
0.6640625	69.72466
0.6665039	70.50234
0.6689453	69.2994
0.6713867	67.17161
0.6738281	65.48159
0.67626953	65.020325
0.67871094	65.752495
0.68115234	67.43805
0.68359375	70.28456
0.68603516	74.93653
0.68847656	81.99443
0.69091797	91.396645
0.6933594	101.8112
0.6958008	110.47942
0.6982422	113.92954
0.7006836	109.35239
0.703125	95.91655
0.7055664	75.26325
0.7080078	50.923355
0.7104492	27.527208
0.7128906	14.307965
0.71533203	22.17636
0.71777344	32.746655
0.72021484	40.07658
0.72265625	45.54431
0.72509766	51.773453
0.72753906	60.61068
0.72998047	71.89482
0.7324219	83.4931
0.7348633	92.53572
0.7373047	96.907814
0.7397461	96.20534
0.7421875	92.15974
0.7446289	88.65929
0.7470703	90.369095
0.7495117	99.39938
0.7519531	113.96777
0.75439453	130.89134
0.75683594	147.46402
0.75927734	161.53008
0.76171875	171.3412
0.76416016	175.5937
0.76660156	173.29382
0.76904297	163.50192
0.7714844	145.43501
0.7739258	119.14593
0.7763672	86.3167
0.7788086	50.52918
0.78125	18.945797
0.7836914	25.316368
0.7861328	49.776638
0.7885742	69.28954
0.7910156	82.0618
0.79345703	88.324356
0.79589844	89.68346
0.79833984	88.900604
0.80078125	89.01399
0.80322266	91.90304
0.80566406	97.12718
0.80810547	102.38705
0.8105469	105.27644
0.8129883	104.49895
0.8154297	99.97064
0.8178711	92.63347
0.8203125	84.26264
0.8227539	76.33933
0.8251953	68.32859
0.8276367	58.034206
0.8300781	44.24208
0.83251953	29.43519
0.83496094	25.173512
0.83740234	40.386475
0.83984375	63.016872
0.84228516	86.45775
0.84472656	108.03338
0.84716797	126.16221
0.8496094	140.0315
0.8520508	149.35394
0.8544922	153.90808
0.8569336	153.27449
0.859375	147.04967
0.8618164	135.38951
0.8642578	119.60795
0.8666992	102.40726
0.8691406	87.072845
0.87158203	75.60408
0.87402344	67.6121
0.87646484	61.609825
0.87890625	56.574448
0.88134766	51.623016
0.88378906	45.19253
0.88623047	35.5409
0.8886719	22.67635
0.8911133	14.580316
0.8935547	25.98798
0.8959961	42.74912
0.8984375	57.51442
0.9008789	69.22476
0.9033203	78.148705
0.9057617	84.43786
0.9082031	87.96506
0.91064453	88.712456
0.91308594	86.85741
0.91552734	82.514694
0.91796875	75.58749
0.92041016	66.007095
0.92285156	54.170116
0.92529297	41.143406
0.9277344	28.530684
0.9301758	18.562822
0.9326172	14.876021
0.9350586	18.386103
0.9375	24.04511
0.9399414	28.315845
0.9423828	29.45611
0.9448242	26.896551
0.9472656	21.304886
0.94970703	14.550477
0.95214844	10.715956
0.95458984	14.580513
0.95703125	23.342285
0.95947266	34.967705
0.96191406	48.56419
0.96435547	61.933167
0.9667969	72.33501
0.9692383	77.98732
0.9716797	78.757545
0.9741211	75.90512
0.9765625	71.27129
0.9790039	66.28832
0.9814453	61.26902
0.9838867	55.531925
0.9863281	48.402534
0.98876953	40.765606
0.99121094	36.516533
0.99365234	39.91252
0.99609375	48.71746
0.99853516	57.516
1.0009766	63.075523
1.003418	64.43019
1.0058594	61.948055
1.0083008	56.499077
1.0107422	48.70763
1.0131836	38.609943
1.015625	25.998116
1.0180664	11.265605
1.0205078	8.057213
1.0229492	24.425375
1.0253906	39.775936
1.027832	51.395382
1.0302734	57.88367
1.0327148	59.0283
1.0351562	55.698086
1.0375977	49.33885
1.0400391	41.36671
1.0424805	32.87408
1.0449219	24.9913
1.0473633	19.873093
1.0498047	20.100088
1.0522461	24.219599
1.0546875	28.433926
1.0571289	30.569864
1.0595703	29.782627
1.0620117	25.591017
1.0644531	17.389906
1.0668945	4.9812684
1.0693359	12.288618
1.0717773	30.04205
1.0742188	45.271416
1.0766602	54.681736
1.0791016	57.58038
1.081543	56.233166
1.0839844	54.667023
1.0864258	56.551872
1.0888672	62.461517
1.0913086	69.27826
1.09375	73.33927
1.0961914	73.26335
1.0986328	70.08274
1.1010742	65.499626
1.1035156	60.09059
1.105957	52.871853
1.1083984	42.334602
1.1108398	27.950256
1.1132812	11.540171
1.1157227	11.769397
1.1181641	28.009752
1.1206055	42.1191
1.1230469	52.361763
1.1254883	58.796814
1.1279297	61.803093
1.1303711	61.342896
1.1328125	57.419792
1.1352539	50.74666
1.1376953	42.415077
1.1401367	33.431515
1.1425781	25.698624
1.1450195	23.99063
1.1474609	31.963284
1.1499023	45.937466
1.1523438	60.843235
1.1547852	72.34499
1.1572266	77.35615
1.159668	75.150185
1.1621094	67.60976
1.1645508	58.11498
1.1669922	49.570335
1.1694336	43.232426
1.171875	39.90302
1.1743164	40.88736
1.1767578	45.708126
1.1791992	51.61233
1.1816406	56.33363
1.184082	59.067425
1.1865234	59.648293
1.1889648	58.075066
1.1914062	54.778805
1.1938477	50.435303
1.1962891	44.99545
1.1987305	37.49516
1.2011719	27.343117
1.2036133	15.779406
1.2060547	9.047054
1.2084961	15.525533
1.2109375	24.45394
1.2133789	32.583584
1.2158203	40.309677
1.2182617	47.356106
1.2207031	52.529602
1.2231445	55.55008
1.2255859	58.354496
1.2280273	63.229256
1.2304688	69.450966
1.2329102	74.05433
1.2353516	75.18189
1.237793	73.05721
1.2402344	68.508675
1.2426758	61.59191
1.2451172	51.933502
1.2475586	39.849384
1.25	26.597643
1.2524414	13.719694
1.2548828	2.883797
1.2573242	7.4629483
1.2597656	13.576
1.262207	16.084555
1.2646484	15.048585
1.2670898	12.355244
1.2695312	12.720235
1.2719727	19.313917
1.2744141	29.665483
1.2768555	40.85345
1.2792969	49.991695
1.2817383	54.74755
1.2841797	54.483284
1.2866211	50.444504
1.2890625	44.697216
1.2915039	38.611748
1.2939453	32.212646
1.2963867	24.955942
1.2988281	16.848204
1.3012695	9.00293
1.3037109	6.5769506
1.3061523	12.988849
1.3085938	21.121992
1.3110352	28.93926
1.3134766	35.489098
1.315918	40.910267
1.3183594	47.029335
1.3208008	55.11342
1.3232422	63.17213
1.3256836	67.67954
1.328125	66.94273
1.3305664	62.20767
1.3330078	56.334183
1.3354492	51.47681
1.3378906	47.79149
1.340332	44.13126
1.3427734	39.3042
1.3452148	32.779972
1.3476562	25.824862
1.3500977	23.710466
1.3525391	30.64169
1.3549805	41.061947
1.3574219	48.945877
1.3598633	51.7196
1.3623047	49.845627
1.3647461	46.013706
1.3671875	42.929947
1.3696289	40.814846
1.3720703	38.1123
1.3745117	34.18938
1.3769531	29.871794
1.3793945	25.881144
1.3818359	21.879137
1.3842773	17.553852
1.3867188	14.153676
1.3891602	14.219439
1.3916016	17.799263
1.394043	22.428637
1.3964844	26.45763
1.3989258	29.36768
1.4013672	31.383429
1.4038086	32.744522
1.40625	32.98514
1.4086914	31.180914
1.4111328	26.824966
1.4135742	20.26956
1.4160156	12.585952
1.418457	5.4014
1.4208984	3.3287072
1.4233398	6.661037
1.4257812	9.369549
1.4282227	12.54346
1.4306641	17.97428
1.4331055	26.393137
1.4355469	37.536503
1.4379883	50.623028
1.4404297	64.46643
1.4428711	77.30547
1.4453125	86.8302
1.4477539	90.8632
1.4501953	88.38663
1.4526367	80.21136
1.4550781	68.87879
1.4575195	57.851532
1.4599609	50.285603
1.4624023	47.74897
1.4648438	49.64921
1.4672852	53.854004
1.4697266	57.41123
1.472168	57.071877
1.4746094	50.467583
1.4770508	38.027157
1.4794922	25.843357
1.4819336	26.859877
1.484375	38.062374
1.4868164	47.847946
1.4892578	53.064575
1.4916992	53.870373
1.4941406	51.076015
1.496582	45.980072
1.4990234	40.998863
1.5014648	40.06228
1.5039062	47.02991
1.5063477	61.768543
1.5087891	80.639725
1.5112305	99.51828
1.5136719	115.07927
1.5161133	125.26852
1.5185547	129.418
1.5209961	128.04285
1.5234375	122.37762
1.5258789	113.80871
1.5283203	103.47205
1.5307617	92.25587
1.5332031	81.16267
1.5356445	71.59147
1.5380859	64.81737
1.5405273	60.755867
1.5429688	57.81766
1.5454102	54.59236
1.5478516	51.162952
1.550293	48.75353
1.5527344	48.647846
1.5551758	51.627003
1.5576172	57.744564
1.5600586	66.0389
1.5625	74.924095
1.5649414	82.98681
1.5673828	89.09547
1.5698242	92.07401
1.5722656	91.02134
1.574707	86.28612
1.5771484	79.88772
1.5795898	74.61704
1.5820312	72.385345
1.5844727	73.10717
1.5869141	75.02805
1.5893555	76.27096
1.5917969	76.353874
1.5942383	76.30891
1.5966797	77.2474
1.5991211	79.11986
1.6015625	81.2367
1.6040039	83.46645
1.6064453	86.195496
1.6088867	88.96455
1.6113281	89.93307
1.6137695	87.78916
1.6162109	84.263565
1.6186523	83.45522
1.6210938	86.555725
1.6235352	89.154884
1.6259766	85.89553
1.628418	74.72428
1.6308594	57.085182
1.6333008	36.520226
1.6357422	20.102942
1.6381836	24.438204
1.640625	40.65443
1.6430664	55.469963
1.6455078	66.09714
1.6479492	71.976494
1.6503906	72.92619
1.652832	68.85507
1.6552734	60.488464
1.6577148	50.30108
1.6601562	42.479584
1.6625977	40.19355
1.6650391	41.66768
1.6674805	42.58616
1.6699219	40.43786
1.6723633	34.866657
1.6748047	26.63669
1.6772461	17.183653
1.6796875	10.584407
1.6821289	14.916516
1.6845703	24.346525
1.6870117	33.467228
1.6894531	41.12179
1.6918945	47.046715
1.6943359	51.103592
1.6967773	53.11557
1.6992188	52.937157
1.7016602	50.445564
1.7041016	45.380806
1.706543	37.374348
1.7089844	26.402622
1.7114258	13.308413
1.7138672	3.5458922
1.7163086	14.886462
1.71875	25.71107
1.7211914	33.43063
1.7236328	37.657925
1.7260742	38.778496
1.7285156	37.818966
1.730957	36.146755
1.7333984	35.182976
1.7358398	36.12922
1.7382812	39.4341
1.7407227	44.68907
1.7431641	51.50472
1.7456055	59.923355
1.7480469	69.44771
1.7504883	78.04859
1.7529297	82.60697
1.7553711	80.361465
1.7578125	70.296936
1.7602539	53.981544
1.7626953	36.258537
1.7651367	27.748037
1.7675781	36.548786
1.7700195	51.81297
1.7724609	65.691986
1.7749023	74.94707
1.7773438	77.83561
1.7797852	74.429306
1.7822266	66.93055
1.784668	58.820374
1.7871094	53.19397
1.7895508	51.259747
1.7919922	51.97737
1.7944336	52.941097
1.796875	51.798378
1.7993164	47.457054
1.8017578	40.602215
1.8041992	33.613964
1.8066406	30.839613
1.809082	36.870018
1.8115234	50.549393
1.8139648	67.2389
1.8164062	83.368454
1.8188477	97.10612
1.8212891	107.78034
1.8237305	114.87229
1.8261719	117.64996
1.8286133	115.80037
1.8310547	109.98983
1.8334961	101.44388
1.8359375	91.059265
1.8383789	79.22459
1.8408203	66.54855
1.8432617	54.51914
1.8457031	45.327526
1.8481445	40.60107
1.8505859	39.79017
1.8530273	40.581806
1.8554688	40.91753
1.8579102	39.96894
1.8603516	38.186817
1.862793	37.040676
1.8652344	38.36364
1.8676758	43.459747
1.8701172	52.366467
1.8725586	63.579185
1.875	74.6761
1.8774414	83.63086
1.8798828	89.70048
1.8823242	93.05142
1.8847656	93.72206
1.887207	91.45573
1.8896484	86.67577
1.8920898	81.18349
1.8945312	77.447945
1.8969727	76.95241
1.8994141	79.27715
1.9018555	82.857605
1.9042969	86.262596
1.9067383	88.79451
1.9091797	90.35129
1.9116211	90.89596
1.9140625	90.025276
1.9165039	86.989075
1.9189453	81.0891
1.9213867	72.168365
1.9238281	60.944553
1.9262695	49.024628
1.9287109	38.397537
1.9311523	30.516613
1.9335938	26.010715
1.9360352	25.502848
1.9384766	29.082317
1.940918	35.109596
1.9433594	41.60925
1.9458008	47.494404
1.9482422	52.50288
1.9506836	56.90219
1.953125	61.15642
1.9555664	65.44384
1.9580078	69.28895
1.9604492	71.70428
1.9628906	71.7439
1.965332	69.0916
1.9677734	64.294914
1.9702148	58.385326
1.9726562	52.12125
1.9750977	45.60349
1.9775391	38.76514
1.9799805	32.328873
1.9824219	28.623053
1.9848633	30.53414
1.9873047	37.464443
1.9897461	45.73571
1.9921875	52.071926
1.9946289	54.786716
1.9970703	54.313637
1.9995117	53.265453
2.0019531	54.652668
2.0043945	58.656113
2.006836	62.41731
2.0092773	63.04315
2.0117188	59.447227
2.0141602	52.33243
2.0166016	43.435284
2.019043	34.663456
2.0214844	27.413206
2.0239258	22.2186
2.0263672	18.826008
2.0288086	16.72624
2.03125	15.951469
2.0336914	17.30703
2.0361328	21.14158
2.0385742	26.572319
2.0410156	32.329082
2.043457	37.21701
2.0458984	40.234097
2.0483398	41.055233
2.0507812	40.402077
2.0532227	39.322178
2.055664	37.890785
2.0581055	35.55168
2.0605469	32.886223
2.0629883	31.623678
2.0654297	31.850601
2.067871	31.098673
2.0703125	27.25201
2.072754	20.745518
2.0751953	15.412372
2.0776367	16.32596
2.0800781	20.604435
2.0825195	23.627878
2.084961	25.139515
2.0874023	27.046022
2.0898438	30.194353
2.0922852	33.1185
2.0947266	33.952076
2.097168	32.040524
2.0996094	27.990183
2.1020508	22.776205
2.1044922	16.85096
2.1069336	10.291358
2.109375	3.7947967
2.1118164	1.044727
2.1142578	2.5488782
2.1166992	1.4828838
2.1191406	4.6874104
2.121582	8.084424
2.1240234	8.360101
2.1264648	5.315138
2.1289062	5.412909
2.1313477	13.842661
2.133789	26.22408
2.1362305	41.37005
2.1386719	56.19662
2.1411133	66.79799
2.1435547	71.3452
2.145996	71.5513
2.1484375	70.83175
2.150879	70.33302
2.1533203	68.02078
2.1557617	61.98359
2.1582031	53.033566
2.1606445	44.69636
2.163086	40.715977
2.1655273	40.4263
2.1679688	39.05831
2.1704102	33.25991
2.1728516	23.955412
2.175293	18.10648
2.1777344	23.038448
2.1801758	31.283638
2.1826172	37.16813
2.1850586	40.531708
2.1875	42.858215
2.1899414	45.018047
2.1923828	46.79057
2.1948242	47.65593
2.1972656	47.323624
2.199707	45.621155
2.2021484	42.380867
2.2045898	37.7305
2.2070312	32.58324
2.2094727	28.545391
2.211914	26.518711
2.2143555	25.517197
2.2167969	24.164268
2.2192383	22.570862
2.2216797	22.6596
2.224121	27.101473
2.2265625	36.199554
2.229004	47.082314
2.2314453	56.06392
2.2338867	60.708115
2.2363281	61.179516
2.2387695	60.17393
2.241211	60.434353
2.2436523	61.576897
2.2460938	60.68502
2.2485352	55.591606
2.2509766	46.531883
2.253418	35.67668
2.2558594	25.649286
2.2583008	17.97492
2.2607422	12.523067
2.2631836	8.701723
2.265625	7.633899
2.2680664	11.081825
2.2705078	17.174013
2.2729492	23.787973
2.2753906	29.50034
2.277832	33.157684
2.2802734	33.758175
2.2827148	30.8867
2.2851562	25.815702
2.2875977	22.396696
2.290039	23.915796
2.2924805	27.62205
2.2949219	29.633839
2.2973633	29.105389
2.2998047	27.207092
2.302246	25.31736
2.3046875	24.052433
2.307129	23.531525
2.3095703	23.852587
2.3120117	25.138268
2.3144531	27.339542
2.3168945	30.088438
2.319336	32.99457
2.3217773	35.84798
2.3242188	38.095467
2.3266602	38.579784
2.3291016	36.384903
2.331543	31.811548
2.3339844	26.424545
2.3364258	22.39169
2.3388672	21.828974
2.3413086	25.64104
2.34375	32.54096
2.3461914	40.30047
2.3486328	47.07172
2.3510742	51.773132
2.3535156	53.89651
2.355957	53.140915
2.3583984	49.474392
2.3608398	43.572525
2.3632812	36.88716
2.3657227	30.95645
2.368164	26.527313
2.3706055	23.240307
2.3730469	20.071733
2.3754883	16.360666
2.3779297	12.861962
2.380371	11.224412
2.3828125	10.783104
2.385254	9.052517
2.3876953	5.951932
2.3901367	6.0183086
2.3925781	9.136614
2.3950195	10.008058
2.397461	7.0275927
2.3999023	1.5291983
2.4023438	6.469541
2.4047852	11.963037
2.4072266	14.460894
2.409668	14.22535
2.4121094	13.620006
2.4145508	15.310179
2.4169922	18.68877
2.4194336	21.400776
2.421875	22.113525
2.4243164	21.007523
2.4267578	19.780901
2.4291992	20.59958
2.4316406	23.553923
2.434082	26.812656
2.4365234	29.052355
2.4389648	30.13581
2.4414062	30.593328
2.4438477	30.958195
2.446289	31.412964
2.4487305	31.871403
2.4511719	32.311523
2.4536133	33.081455
2.4560547	34.91185
2.458496	38.321083
2.4609375	42.667717
