
X-Axis: Frequency (hz)
Y-Axis: Fourier Amplitude (cm/s)
Number of Data Sets: 4


DATASET #1

Name: FAS H1 (cm/s)
Num Points: 2044
Info: 

X, Y Data:
0.009765625	1.9456414
0.012207031	2.3436382
0.014648438	2.6743352
0.017089844	2.9143512
0.01953125	3.0366182
0.021972656	3.0138724
0.024414062	2.824179
0.026855469	2.4594288
0.029296875	1.9387827
0.03173828	1.3442807
0.034179688	0.97461665
0.036621094	1.3237778
0.0390625	2.0973096
0.041503906	2.9399915
0.043945312	3.730324
0.04638672	4.4183817
0.048828125	4.9890323
0.05126953	5.4552546
0.053710938	5.854775
0.056152344	6.2425036
0.05859375	6.6789656
0.061035156	7.2163277
0.06347656	7.8867087
0.06591797	8.696521
0.068359375	9.627871
0.07080078	10.646234
0.07324219	11.709942
0.075683594	12.777607
0.078125	13.810453
0.080566406	14.770503
0.08300781	15.61936
0.08544922	16.320871
0.087890625	16.849314
0.09033203	17.19815
0.09277344	17.384222
0.095214844	17.442263
0.09765625	17.41193
0.10009766	17.32414
0.10253906	17.194902
0.10498047	17.029797
0.10742188	16.832623
0.10986328	16.609484
0.11230469	16.363121
0.11474609	16.081799
0.1171875	15.73522
0.11962891	15.286787
0.12207031	14.722917
0.12451172	14.083584
0.12695312	13.472727
0.12939453	13.026713
0.13183594	12.844728
0.13427734	12.92854
0.13671875	13.188957
0.13916016	13.507073
0.14160156	13.780822
0.14404297	13.923466
0.14648438	13.844066
0.14892578	13.452782
0.15136719	12.702336
0.1538086	11.633362
0.15625	10.38317
0.1586914	9.133965
0.16113281	8.017907
0.16357422	7.0499287
0.16601562	6.1588435
0.16845703	5.283988
0.17089844	4.4303994
0.17333984	3.6446495
0.17578125	2.9568665
0.17822266	2.354757
0.18066406	1.8558128
0.18310547	1.7380688
0.18554688	2.414505
0.18798828	3.671666
0.19042969	5.0830665
0.1928711	6.317025
0.1953125	7.142978
0.1977539	7.473594
0.20019531	7.3904443
0.20263672	7.11421
0.20507812	6.9239755
0.20751953	7.07435
0.20996094	7.770066
0.21240234	9.149852
0.21484375	11.204348
0.21728516	13.722184
0.21972656	16.347971
0.22216797	18.698544
0.22460938	20.476763
0.22705078	21.550358
0.22949219	21.960697
0.2319336	21.84199
0.234375	21.292385
0.2368164	20.304947
0.23925781	18.828993
0.24169922	16.890852
0.24414062	14.633986
0.24658203	12.224307
0.24902344	9.717544
0.25146484	7.044157
0.25390625	4.1438065
0.25634766	1.366144
0.25878906	2.881551
0.26123047	6.217087
0.26367188	9.654722
0.26611328	13.132837
0.2685547	16.692911
0.2709961	20.378605
0.2734375	24.159916
0.2758789	27.902786
0.2783203	31.438074
0.28076172	34.686512
0.28320312	37.698616
0.28564453	40.52244
0.28808594	43.007835
0.29052734	44.773758
0.29296875	45.406433
0.29541016	44.712166
0.29785156	42.830482
0.30029297	40.16564
0.30273438	37.242355
0.30517578	34.607216
0.3076172	32.788048
0.3100586	32.217476
0.3125	33.10979
0.3149414	35.443512
0.3173828	39.077137
0.31982422	43.80687
0.32226562	49.313557
0.32470703	55.16364
0.32714844	60.94817
0.32958984	66.45028
0.33203125	71.68097
0.33447266	76.728294
0.33691406	81.52969
0.33935547	85.76791
0.34179688	89.004
0.34423828	90.944016
0.3466797	91.60465
0.3491211	91.211044
0.3515625	89.90202
0.3540039	87.534966
0.3564453	83.810905
0.35888672	78.601135
0.36132812	72.167885
0.36376953	65.09651
0.36621094	58.007
0.36865234	51.28915
0.37109375	45.121044
0.37353516	39.790474
0.37597656	35.969746
0.37841797	34.481705
0.38085938	35.57337
0.38330078	38.543972
0.3857422	42.120537
0.3881836	44.905853
0.390625	45.68528
0.3930664	43.74904
0.3955078	39.10408
0.39794922	32.384956
0.40039062	24.53557
0.40283203	16.647898
0.40527344	10.689063
0.40771484	10.548654
0.41015625	14.923065
0.41259766	19.300953
0.41503906	22.243155
0.41748047	23.796577
0.41992188	24.479776
0.42236328	24.785889
0.4248047	25.116392
0.4272461	25.844814
0.4296875	27.123863
0.4321289	28.744846
0.4345703	30.387465
0.43701172	31.89005
0.43945312	33.294235
0.44189453	34.873035
0.44433594	37.125576
0.44677734	40.51226
0.44921875	45.154827
0.45166016	50.82513
0.45410156	56.93418
0.45654297	62.405876
0.45898438	65.89977
0.46142578	66.48692
0.4638672	64.207855
0.4663086	59.97239
0.46875	54.872784
0.4711914	49.59587
0.4736328	44.50973
0.47607422	40.124065
0.47851562	37.25009
0.48095703	36.668118
0.48339844	38.515606
0.48583984	41.988724
0.48828125	45.92148
0.49072266	49.618496
0.49316406	52.969296
0.49560547	55.839012
0.49804688	57.679054
0.5004883	57.949257
0.5029297	56.745506
0.5053711	54.85147
0.5078125	53.189255
0.5102539	52.180725
0.5126953	51.541
0.5151367	50.707066
0.5175781	49.5642
0.52001953	48.70091
0.52246094	48.71497
0.52490234	49.41352
0.52734375	50.18309
0.52978516	50.842644
0.53222656	51.504333
0.53466797	51.811638
0.5371094	50.95501
0.5395508	48.466324
0.5419922	44.625076
0.5444336	40.091045
0.546875	35.370655
0.5493164	30.699041
0.5517578	26.226194
0.5541992	22.11969
0.5566406	18.61381
0.55908203	16.2502
0.56152344	16.054087
0.56396484	18.766788
0.56640625	23.938135
0.56884766	30.622158
0.57128906	38.143375
0.57373047	46.15794
0.5761719	54.41756
0.5786133	62.46102
0.5810547	69.46727
0.5834961	74.47164
0.5859375	76.851585
0.5883789	76.66039
0.5908203	74.407364
0.5932617	70.45323
0.5957031	64.79364
0.59814453	57.599277
0.60058594	49.815002
0.60302734	42.944523
0.60546875	38.041096
0.60791016	35.013447
0.61035156	33.09755
0.61279297	31.497065
0.6152344	29.436752
0.6176758	26.321217
0.6201172	22.199553
0.6225586	17.906128
0.625	14.438738
0.6274414	11.849328
0.6298828	9.264515
0.6323242	6.740835
0.6347656	6.6896205
0.63720703	9.4210415
0.63964844	12.245191
0.64208984	14.058712
0.64453125	14.514834
0.64697266	13.146909
0.64941406	9.638675
0.65185547	4.375709
0.6542969	2.372708
0.6567383	8.94442
0.6591797	16.119238
0.6616211	23.71285
0.6640625	31.090015
0.6665039	37.416416
0.6689453	42.39966
0.6713867	46.346855
0.6738281	49.404152
0.67626953	51.102947
0.67871094	51.00068
0.68115234	49.523254
0.68359375	47.78666
0.68603516	46.458054
0.68847656	45.094074
0.69091797	42.812454
0.6933594	39.15676
0.6958008	34.1149
0.6982422	27.730684
0.7006836	20.189447
0.703125	12.463501
0.7055664	7.5888357
0.7080078	9.742898
0.7104492	15.077027
0.7128906	21.115032
0.71533203	27.2925
0.71777344	32.667084
0.72021484	36.25004
0.72265625	37.507774
0.72509766	36.418953
0.72753906	33.30272
0.72998047	28.658772
0.7324219	23.040356
0.7348633	16.940317
0.7373047	10.745815
0.7397461	5.232802
0.7421875	5.4457483
0.7446289	11.213288
0.7470703	17.451788
0.7495117	22.985405
0.7519531	27.090267
0.75439453	29.283234
0.75683594	29.554113
0.75927734	28.487556
0.76171875	27.079233
0.76416016	26.354122
0.76660156	27.074068
0.76904297	29.520515
0.7714844	33.3008
0.7739258	37.527893
0.7763672	41.229496
0.7788086	43.58123
0.78125	44.004192
0.7836914	42.267796
0.7861328	38.55441
0.7885742	33.524765
0.7910156	28.591413
0.79345703	26.178095
0.79589844	28.387257
0.79833984	34.71178
0.80078125	43.415844
0.80322266	53.386345
0.80566406	63.962143
0.80810547	74.55272
0.8105469	84.528625
0.8129883	93.16941
0.8154297	99.726234
0.8178711	103.66553
0.8203125	104.84201
0.8227539	103.37746
0.8251953	99.47948
0.8276367	93.49735
0.8300781	86.04847
0.83251953	77.854485
0.83496094	69.40257
0.83740234	60.88532
0.83984375	52.44667
0.84228516	44.297127
0.84472656	36.569813
0.84716797	29.303892
0.8496094	22.740099
0.8520508	17.637331
0.8544922	15.133738
0.8569336	15.63027
0.859375	18.152761
0.8618164	21.652235
0.8642578	25.565447
0.8666992	29.506573
0.8691406	33.113644
0.87158203	35.963787
0.87402344	37.525726
0.87646484	37.377716
0.87890625	35.522488
0.88134766	32.35234
0.88378906	28.30189
0.88623047	23.832968
0.8886719	20.068447
0.8911133	19.065918
0.8935547	21.809006
0.8959961	26.770924
0.8984375	32.236588
0.9008789	37.43316
0.9033203	42.030613
0.9057617	45.506817
0.9082031	47.045197
0.91064453	45.962837
0.91308594	42.07365
0.91552734	35.683365
0.91796875	27.62154
0.92041016	19.702257
0.92285156	15.247173
0.92529297	16.443762
0.9277344	20.58994
0.9301758	25.215086
0.9326172	29.177135
0.9350586	31.341045
0.9375	31.002213
0.9399414	28.511084
0.9423828	25.052135
0.9448242	21.861092
0.9472656	19.618122
0.94970703	18.494957
0.95214844	18.484007
0.95458984	19.507084
0.95703125	21.40182
0.95947266	24.040234
0.96191406	27.62993
0.96435547	32.8615
0.9667969	40.41117
0.9692383	50.10528
0.9716797	60.77312
0.9741211	70.951744
0.9765625	79.73211
0.9790039	87.04853
0.9814453	93.1447
0.9838867	97.76042
0.9863281	100.06138
0.98876953	99.36312
0.99121094	95.67096
0.99365234	89.481636
0.99609375	81.28758
0.99853516	71.50171
1.0009766	60.802452
1.003418	50.30692
1.0058594	41.28934
1.0083008	34.68102
1.0107422	30.669598
1.0131836	28.427513
1.015625	26.262388
1.0180664	22.538252
1.0205078	16.636217
1.0229492	9.123769
1.0253906	1.3260939
1.027832	6.9122195
1.0302734	14.376139
1.0327148	21.386116
1.0351562	27.579851
1.0375977	32.69202
1.0400391	37.01505
1.0424805	41.403786
1.0449219	46.725567
1.0473633	53.128952
1.0498047	59.95243
1.0522461	66.37225
1.0546875	71.90251
1.0571289	76.14736
1.0595703	78.29099
1.0620117	77.27792
1.0644531	72.7362
1.0668945	65.76081
1.0693359	58.730183
1.0717773	53.92696
1.0742188	52.038776
1.0766602	52.536697
1.0791016	55.323513
1.081543	61.005257
1.0839844	69.710625
1.0864258	80.437225
1.0888672	91.50611
1.0913086	101.28673
1.09375	108.70419
1.0961914	113.49245
1.0986328	116.13029
1.1010742	117.39478
1.1035156	117.73634
1.105957	116.96545
1.1083984	114.57602
1.1108398	110.42371
1.1132812	105.15879
1.1157227	100.11117
1.1181641	96.7083
1.1206055	95.68851
1.1230469	96.602936
1.1254883	98.07511
1.1279297	98.602745
1.1303711	97.26756
1.1328125	93.977135
1.1352539	89.227974
1.1376953	83.55273
1.1401367	77.04438
1.1425781	69.47038
1.1450195	60.925426
1.1474609	52.319748
1.1499023	45.108135
1.1523438	40.41944
1.1547852	38.30117
1.1572266	37.61283
1.159668	36.614166
1.1621094	33.929638
1.1645508	29.317324
1.1669922	23.774006
1.1694336	18.944386
1.171875	15.961038
1.1743164	14.5025
1.1767578	13.680063
1.1791992	13.605007
1.1816406	14.619606
1.184082	15.334821
1.1865234	13.346692
1.1889648	7.1438603
1.1914062	3.0601416
1.1938477	15.434616
1.1962891	27.486477
1.1987305	37.1122
1.2011719	43.515873
1.2036133	47.434486
1.2060547	50.573746
1.2084961	54.47405
1.2109375	59.591938
1.2133789	65.309975
1.2158203	70.54348
1.2182617	74.40292
1.2207031	76.75953
1.2231445	78.339645
1.2255859	79.965355
1.2280273	81.51137
1.2304688	81.890854
1.2329102	80.136795
1.2353516	76.27238
1.237793	71.28814
1.2402344	66.548805
1.2426758	63.12675
1.2451172	61.393036
1.2475586	60.94595
1.25	60.815857
1.2524414	59.810593
1.2548828	56.87518
1.2573242	51.391552
1.2597656	43.38979
1.262207	33.510963
1.2646484	22.80585
1.2670898	13.666795
1.2695312	14.829568
1.2719727	26.390923
1.2744141	39.650803
1.2768555	51.16766
1.2792969	59.52932
1.2817383	64.772545
1.2841797	67.78272
1.2866211	69.37748
1.2890625	69.93057
1.2915039	69.57622
1.2939453	68.23286
1.2963867	65.551056
1.2988281	61.399574
1.3012695	56.38923
1.3037109	51.34094
1.3061523	46.211376
1.3085938	40.248478
1.3110352	33.369038
1.3134766	26.838245
1.315918	22.595486
1.3183594	21.95849
1.3208008	24.742722
1.3232422	29.480608
1.3256836	34.27206
1.328125	37.755795
1.3305664	39.87888
1.3330078	41.81092
1.3354492	44.72224
1.3378906	48.597088
1.340332	52.689022
1.3427734	56.820503
1.3452148	61.757896
1.3476562	68.39746
1.3500977	76.86144
1.3525391	86.63452
1.3549805	97.244995
1.3574219	108.14214
1.3598633	117.79801
1.3623047	123.52684
1.3647461	122.70195
1.3671875	114.3171
1.3696289	99.59746
1.3720703	81.15869
1.3745117	61.451603
1.3769531	42.282257
1.3793945	28.570282
1.3818359	34.000195
1.3842773	55.081295
1.3867188	79.56089
1.3891602	102.72086
1.3916016	122.87849
1.394043	139.81905
1.3964844	153.96442
1.3989258	165.59964
1.4013672	174.46733
1.4038086	179.87427
1.40625	181.09807
1.4086914	177.74115
1.4111328	169.88762
1.4135742	158.05577
1.4160156	142.98737
1.418457	125.5071
1.4208984	106.83925
1.4233398	89.49615
1.4257812	77.896866
1.4282227	76.4458
1.4306641	85.26906
1.4331055	100.91961
1.4355469	120.21459
1.4379883	140.57208
1.4404297	159.6219
1.4428711	176.05067
1.4453125	190.14894
1.4477539	202.79063
1.4501953	213.71896
1.4526367	221.26234
1.4550781	224.0207
1.4575195	222.51918
1.4599609	218.8763
1.4624023	214.57707
1.4648438	208.80144
1.4672852	199.45898
1.4697266	185.72946
1.472168	169.38504
1.4746094	153.94627
1.4770508	142.63591
1.4794922	136.87764
1.4819336	136.23715
1.484375	139.13148
1.4868164	143.53046
1.4892578	147.78357
1.4916992	151.39204
1.4941406	154.94574
1.496582	158.92162
1.4990234	162.42172
1.5014648	163.25272
1.5039062	159.28433
1.5063477	149.81076
1.5087891	135.89157
1.5112305	119.56252
1.5136719	102.49743
1.5161133	85.305786
1.5185547	68.45253
1.5209961	54.290245
1.5234375	47.778454
1.5258789	51.05402
1.5283203	59.087086
1.5307617	66.76772
1.5332031	72.33702
1.5356445	75.59841
1.5380859	76.31549
1.5405273	73.973495
1.5429688	68.35438
1.5454102	59.960407
1.5478516	49.959087
1.550293	39.824894
1.5527344	30.993195
1.5551758	24.610937
1.5576172	21.315807
1.5600586	20.85877
1.5625	21.927338
1.5649414	22.784754
1.5673828	22.05924
1.5698242	19.186535
1.5722656	14.494678
1.574707	8.940378
1.5771484	4.1373415
1.5795898	4.406729
1.5820312	7.876616
1.5844727	11.073116
1.5869141	13.6128
1.5893555	14.955527
1.5917969	14.497844
1.5942383	12.843177
1.5966797	12.458529
1.5991211	14.165449
1.6015625	14.876017
1.6040039	12.239603
1.6064453	7.9051986
1.6088867	10.440953
1.6113281	17.840134
1.6137695	24.178148
1.6162109	29.5775
1.6186523	36.23135
1.6210938	44.136826
1.6235352	50.599514
1.6259766	53.924553
1.628418	56.15156
1.6308594	61.604713
1.6333008	71.2449
1.6357422	81.455185
1.6381836	88.95194
1.640625	93.61177
1.6430664	97.44056
1.6455078	101.75076
1.6479492	105.60318
1.6503906	106.93384
1.652832	104.39179
1.6552734	98.07505
1.6577148	89.19038
1.6601562	79.29032
1.6625977	69.57343
1.6650391	60.671463
1.6674805	53.185368
1.6699219	48.650322
1.6723633	49.64094
1.6748047	57.3374
1.6772461	70.01928
1.6796875	85.236984
1.6821289	101.40016
1.6845703	117.37936
1.6870117	131.77809
1.6894531	142.92476
1.6918945	149.60576
1.6943359	151.63481
1.6967773	149.6829
1.6992188	144.52042
1.7016602	136.34312
1.7041016	124.80767
1.706543	109.68768
1.7089844	91.66576
1.7114258	72.76677
1.7138672	56.420696
1.7163086	47.17016
1.71875	48.122723
1.7211914	56.74796
1.7236328	67.81123
1.7260742	77.52962
1.7285156	84.116905
1.730957	87.50481
1.7333984	88.48639
1.7358398	87.491165
1.7382812	84.1706
1.7407227	78.18803
1.7431641	70.08407
1.7456055	61.33827
1.7480469	53.72546
1.7504883	48.764965
1.7529297	47.437317
1.7553711	49.753815
1.7578125	54.429996
1.7602539	59.490067
1.7626953	63.210995
1.7651367	64.58815
1.7675781	63.32005
1.7700195	59.603786
1.7724609	54.07158
1.7749023	48.003845
1.7773438	43.78926
1.7797852	44.678234
1.7822266	52.44008
1.784668	65.939354
1.7871094	83.10691
1.7895508	102.18973
1.7919922	121.59922
1.7944336	139.82721
1.796875	155.76102
1.7993164	169.05168
1.8017578	180.06392
1.8041992	189.26683
1.8066406	196.52599
1.809082	200.90253
1.8115234	201.1878
1.8139648	196.73607
1.8164062	187.96724
1.8188477	176.18135
1.8212891	162.69734
1.8237305	147.96077
1.8261719	131.48946
1.8286133	112.82047
1.8310547	92.51987
1.8334961	72.31934
1.8359375	54.368427
1.8383789	40.6328
1.8408203	33.82982
1.8432617	37.054344
1.8457031	48.074787
1.8481445	61.490932
1.8505859	73.62583
1.8530273	82.892586
1.8554688	89.19153
1.8579102	93.206955
1.8603516	95.78035
1.862793	97.65991
1.8652344	99.59397
1.8676758	102.33898
1.8701172	106.46211
1.8725586	112.07468
1.875	118.66987
1.8774414	125.1892
1.8798828	130.40404
1.8823242	133.38004
1.8847656	133.71814
1.887207	131.2866
1.8896484	125.75843
1.8920898	116.59188
1.8945312	103.65491
1.8969727	87.83461
1.8994141	70.88123
1.9018555	54.46274
1.9042969	39.320095
1.9067383	25.676807
1.9091797	14.958158
1.9116211	11.477814
1.9140625	13.83454
1.9165039	14.95745
1.9189453	14.262896
1.9213867	15.947803
1.9238281	23.123064
1.9262695	34.552387
1.9287109	49.27167
1.9311523	66.90826
1.9335938	86.568665
1.9360352	106.72224
1.9384766	125.54832
1.940918	141.25244
1.9433594	152.29504
1.9458008	157.86192
1.9482422	158.36877
1.9506836	155.42584
1.953125	151.00047
1.9555664	146.33664
1.9580078	141.78311
1.9604492	137.659
1.9628906	134.90276
1.965332	134.72311
1.9677734	137.85443
1.9702148	144.25711
1.9726562	153.14647
1.9750977	162.8371
1.9775391	170.88072
1.9799805	174.90152
1.9824219	173.63446
1.9848633	167.37788
1.9873047	157.62181
1.9897461	146.13762
1.9921875	134.24648
1.9946289	122.66605
1.9970703	111.67709
1.9995117	101.24392
2.0019531	90.96787
2.0043945	80.256676
2.006836	68.73156
2.0092773	56.60031
2.0117188	44.76593
2.0141602	34.58573
2.0166016	27.550707
2.019043	25.04912
2.0214844	27.679407
2.0239258	34.29744
2.0263672	42.79404
2.0288086	51.411186
2.03125	59.486336
2.0336914	67.46975
2.0361328	75.92801
2.0385742	84.26106
2.0410156	90.669266
2.043457	93.533
2.0458984	92.9046
2.0483398	90.88182
2.0507812	90.20918
2.0532227	91.74851
2.055664	93.71169
2.0581055	93.728714
2.0605469	90.91721
2.0629883	86.17207
2.0654297	80.96236
2.067871	75.92749
2.0703125	70.5298
2.072754	63.94806
2.0751953	56.082043
2.0776367	47.89327
2.0800781	41.120975
2.0825195	37.503914
2.084961	37.588806
2.0874023	40.474007
2.0898438	44.937447
2.0922852	50.080254
2.0947266	54.984898
2.097168	58.495148
2.0996094	59.571457
2.1020508	57.894424
2.1044922	54.21429
2.1069336	50.218388
2.109375	47.914917
2.1118164	48.81498
2.1142578	53.280666
2.1166992	60.397636
2.1191406	68.437454
2.121582	75.60842
2.1240234	80.78807
2.1264648	83.88343
2.1289062	85.62071
2.1313477	86.92599
2.133789	88.27012
2.1362305	89.44462
2.1386719	89.807465
2.1411133	88.631195
2.1435547	85.413475
2.145996	80.10309
2.1484375	73.25951
2.150879	66.04032
2.1533203	59.803932
2.1557617	55.301373
2.1582031	52.071335
2.1606445	48.89121
2.163086	45.06891
2.1655273	41.452248
2.1679688	40.15245
2.1704102	42.460583
2.1728516	47.14194
2.175293	51.982674
2.1777344	55.789333
2.1801758	58.77819
2.1826172	62.003372
2.1850586	66.37884
2.1875	71.857765
2.1899414	77.43261
2.1923828	81.77134
2.1948242	83.97926
2.1972656	84.03841
2.199707	82.898186
2.2021484	82.166824
2.2045898	83.3166
2.2070312	86.70578
2.2094727	91.26991
2.211914	95.29045
2.2143555	97.48033
2.2167969	97.53773
2.2192383	95.99832
2.2216797	93.68713
2.224121	91.168434
2.2265625	88.582146
2.229004	85.82121
2.2314453	82.645645
2.2338867	78.555916
2.2363281	72.713745
2.2387695	64.34251
2.241211	53.426277
2.2436523	41.04907
2.2460938	28.945639
2.2485352	18.487349
2.2509766	10.440704
2.253418	9.582767
2.2558594	18.134714
2.2583008	28.856451
2.2607422	38.463905
2.2631836	45.395462
2.265625	49.562305
2.2680664	52.249798
2.2705078	55.056087
2.2729492	58.391262
2.2753906	61.287895
2.277832	62.655575
2.2802734	62.396873
2.2827148	61.545418
2.2851562	61.652122
2.2875977	63.95938
2.290039	68.72248
2.2924805	75.07469
2.2949219	81.45999
2.2973633	86.38367
2.2998047	89.049706
2.302246	89.66684
2.3046875	89.19818
2.307129	88.64764
2.3095703	88.24564
2.3120117	87.20455
2.3144531	84.280945
2.3168945	78.621185
2.319336	70.324265
2.3217773	60.4502
2.3242188	50.547756
2.3266602	41.911278
2.3291016	34.995213
2.331543	29.460358
2.3339844	24.761253
2.3364258	20.625538
2.3388672	17.151133
2.3413086	14.714117
2.34375	13.593796
2.3461914	13.659897
2.3486328	14.917167
2.3510742	17.938036
2.3535156	22.965172
2.355957	29.339687
2.3583984	36.247566
2.3608398	43.343285
2.3632812	50.67217
2.3657227	58.10125
2.368164	64.97526
2.3706055	70.445984
2.3730469	74.114456
2.3754883	76.4114
2.3779297	78.34034
2.380371	80.712456
2.3828125	83.54859
2.385254	86.22285
2.3876953	88.10744
2.3901367	89.10417
2.3925781	89.70377
2.3950195	90.671
2.397461	92.521126
2.3999023	95.15341
2.4023438	97.945724
2.4047852	100.31444
2.4072266	102.33355
2.409668	104.80645
2.4121094	108.45076
2.4145508	112.86259
2.4169922	116.46453
2.4194336	117.65026
2.421875	115.99272
2.4243164	112.55898
2.4267578	109.14033
2.4291992	106.92316
2.4316406	105.74531
2.434082	104.68436
2.4365234	103.18655
2.4389648	101.7093
2.4414062	101.58389
2.4438477	104.2306
2.446289	110.03961
2.4487305	117.6205
2.4511719	124.31128
2.4536133	127.61962
2.4560547	126.70821
2.458496	123.13246
