
X-Axis: Frequency (hz)
Y-Axis: Fourier Amplitude (cm/s)
Number of Data Sets: 4


DATASET #1

Name: FAS H1 (cm/s)
Num Points: 2044
Info: 

X, Y Data:
0.009765625	0.9130592
0.012207031	1.1240102
0.014648438	1.2945422
0.017089844	1.4530904
0.01953125	1.6518178
0.021972656	1.921905
0.024414062	2.2492552
0.026855469	2.5824597
0.029296875	2.8836648
0.03173828	3.1762767
0.034179688	3.5128367
0.036621094	3.9087262
0.0390625	4.3377604
0.041503906	4.773671
0.043945312	5.223339
0.04638672	5.707593
0.048828125	6.1826334
0.05126953	6.5225706
0.053710938	6.634978
0.056152344	6.598621
0.05859375	6.676345
0.061035156	7.0879965
0.06347656	7.711203
0.06591797	8.166102
0.068359375	8.174278
0.07080078	7.7956076
0.07324219	7.4380774
0.075683594	7.522379
0.078125	7.9417677
0.080566406	8.150139
0.08300781	7.77781
0.08544922	7.002442
0.087890625	6.543491
0.09033203	6.9726954
0.09277344	7.8187885
0.095214844	8.191695
0.09765625	7.719307
0.10009766	6.867449
0.10253906	6.739645
0.10498047	7.673447
0.10742188	8.604962
0.10986328	8.520279
0.11230469	7.220011
0.11474609	5.629855
0.1171875	5.6551247
0.11962891	7.0846143
0.12207031	7.864753
0.12451172	7.101865
0.12695312	5.332652
0.12939453	4.737383
0.13183594	6.2558994
0.13427734	7.407058
0.13671875	6.730382
0.13916016	4.362034
0.14160156	2.9259205
0.14404297	5.302813
0.14648438	7.3773785
0.14892578	7.466575
0.15136719	5.5456014
0.1538086	2.8782601
0.15625	3.3542235
0.1586914	5.707356
0.16113281	7.1115084
0.16357422	7.497745
0.16601562	7.4533353
0.16845703	7.2951455
0.17089844	6.801595
0.17333984	5.8535957
0.17578125	5.1084957
0.17822266	5.538005
0.18066406	6.6494293
0.18310547	7.306282
0.18554688	7.1941304
0.18798828	6.9212756
0.19042969	7.311768
0.1928711	8.093871
0.1953125	8.163238
0.1977539	6.9210563
0.20019531	5.4287705
0.20263672	6.642352
0.20507812	9.476119
0.20751953	10.770113
0.20996094	9.206027
0.21240234	5.8449836
0.21484375	6.319404
0.21728516	10.464036
0.21972656	12.627481
0.22216797	11.074653
0.22460938	6.458887
0.22705078	3.6548657
0.22949219	7.637973
0.2319336	10.150227
0.234375	9.526431
0.2368164	7.067221
0.23925781	5.7040253
0.24169922	6.227653
0.24414062	5.918388
0.24658203	3.7483437
0.24902344	2.5937743
0.25146484	6.254577
0.25390625	9.685134
0.25634766	11.055303
0.25878906	9.805898
0.26123047	6.3255687
0.26367188	1.9580904
0.26611328	2.627542
0.2685547	4.7875204
0.2709961	4.883123
0.2734375	3.6858232
0.2758789	2.4571667
0.2783203	1.0272342
0.28076172	1.7549348
0.28320312	5.6881466
0.28564453	9.495686
0.28808594	11.633939
0.29052734	11.209119
0.29296875	8.709401
0.29541016	6.9120116
0.29785156	8.692178
0.30029297	11.061107
0.30273438	11.298608
0.30517578	9.554023
0.3076172	9.79437
0.3100586	14.882907
0.3125	20.386917
0.3149414	22.191269
0.3173828	18.283659
0.31982422	8.821568
0.32226562	4.1175113
0.32470703	17.306425
0.32714844	27.343538
0.32958984	31.531572
0.33203125	28.722878
0.33447266	19.890251
0.33691406	7.964557
0.33935547	3.5841913
0.34179688	11.18064
0.34423828	13.769602
0.3466797	11.352201
0.3491211	5.0311103
0.3515625	7.084733
0.3540039	19.17478
0.3564453	31.171846
0.35888672	39.62431
0.36132812	42.196465
0.36376953	39.221325
0.36621094	34.013935
0.36865234	29.978462
0.37109375	26.715221
0.37353516	22.566034
0.37597656	19.414427
0.37841797	19.653297
0.38085938	20.39104
0.38330078	18.702518
0.3857422	15.563358
0.3881836	13.646632
0.390625	14.653666
0.3930664	19.86283
0.3955078	27.88864
0.39794922	34.388702
0.40039062	36.238632
0.40283203	34.275993
0.40527344	32.321735
0.40771484	32.453842
0.41015625	34.383327
0.41259766	38.7111
0.41503906	43.712402
0.41748047	44.66077
0.41992188	39.482983
0.42236328	31.832891
0.4248047	27.841238
0.4272461	27.387762
0.4296875	26.077389
0.4321289	23.66992
0.4345703	23.272034
0.43701172	27.463339
0.43945312	34.729183
0.44189453	40.13872
0.44433594	39.917965
0.44677734	36.14654
0.44921875	36.600536
0.45166016	41.83471
0.45410156	43.99777
0.45654297	41.13315
0.45898438	37.731133
0.46142578	34.800533
0.4638672	28.175272
0.4663086	18.499569
0.46875	12.475862
0.4711914	9.413764
0.4736328	7.630949
0.47607422	15.180996
0.47851562	21.543306
0.48095703	26.459831
0.48339844	36.867626
0.48583984	47.331444
0.48828125	49.29344
0.49072266	45.510036
0.49316406	46.149403
0.49560547	49.00346
0.49804688	47.4807
0.5004883	48.373917
0.5029297	54.97371
0.5053711	55.36542
0.5078125	44.573925
0.5102539	33.257214
0.5126953	31.92835
0.5151367	30.50943
0.5175781	27.087286
0.52001953	30.92557
0.52246094	34.499584
0.52490234	29.614904
0.52734375	24.67236
0.52978516	31.833406
0.53222656	39.637955
0.53466797	39.971893
0.5371094	36.767097
0.5395508	38.20955
0.5419922	43.330193
0.5444336	44.427807
0.546875	39.445145
0.5493164	36.66824
0.5517578	45.14779
0.5541992	56.88134
0.5566406	62.910675
0.55908203	63.319817
0.56152344	63.15737
0.56396484	64.04135
0.56640625	62.800415
0.56884766	59.533237
0.57128906	59.84996
0.57373047	64.79354
0.5761719	66.80157
0.5786133	59.957874
0.5810547	45.326366
0.5834961	29.069292
0.5859375	17.910995
0.5883789	14.909147
0.5908203	17.798018
0.5932617	20.783697
0.5957031	18.735031
0.59814453	13.048852
0.60058594	19.198301
0.60302734	34.35099
0.60546875	46.55357
0.60791016	50.854515
0.61035156	45.700127
0.61279297	32.93345
0.6152344	18.625402
0.6176758	13.671568
0.6201172	17.296856
0.6225586	21.397312
0.625	29.085924
0.6274414	39.669186
0.6298828	48.58952
0.6323242	52.867363
0.6347656	51.26044
0.63720703	44.03503
0.63964844	34.20446
0.64208984	27.548141
0.64453125	26.080658
0.64697266	24.111568
0.64941406	18.410063
0.65185547	14.676362
0.6542969	21.760065
0.6567383	31.771732
0.6591797	37.548866
0.6616211	36.521343
0.6640625	28.688175
0.6665039	15.877012
0.6689453	1.8616496
0.6713867	13.202532
0.6738281	23.165417
0.67626953	27.591936
0.67871094	26.339766
0.68115234	20.72308
0.68359375	13.012189
0.68603516	5.914776
0.68847656	1.944742
0.69091797	2.2361252
0.6933594	6.019017
0.6958008	10.883615
0.6982422	13.914608
0.7006836	13.797406
0.703125	12.079208
0.7055664	11.959306
0.7080078	13.026344
0.7104492	11.977359
0.7128906	7.991577
0.71533203	8.493607
0.71777344	17.495796
0.72021484	26.190321
0.72265625	30.317886
0.72509766	28.40794
0.72753906	22.935335
0.72998047	22.138884
0.7324219	29.5533
0.7348633	37.494396
0.7373047	42.236294
0.7397461	45.70993
0.7421875	50.315117
0.7446289	54.521164
0.7470703	55.319027
0.7495117	52.38815
0.7519531	49.269928
0.75439453	50.964905
0.75683594	57.22664
0.75927734	61.57855
0.76171875	58.190445
0.76416016	46.161842
0.76660156	30.575964
0.76904297	22.16016
0.7714844	24.361877
0.7739258	25.215612
0.7763672	20.81259
0.7788086	17.229649
0.78125	21.512527
0.7836914	27.082586
0.7861328	27.459856
0.7885742	21.640968
0.7910156	12.450214
0.79345703	9.448822
0.79589844	17.112535
0.79833984	24.182749
0.80078125	28.133352
0.80322266	29.874733
0.80566406	31.227741
0.80810547	32.727734
0.8105469	33.105087
0.8129883	31.130455
0.8154297	27.007563
0.8178711	22.054317
0.8203125	17.55502
0.8227539	15.370578
0.8251953	19.88935
0.8276367	30.908976
0.8300781	42.97417
0.83251953	50.612286
0.83496094	49.641052
0.83740234	38.45667
0.83984375	19.30594
0.84228516	12.363518
0.84472656	33.82459
0.84716797	52.367786
0.8496094	63.720657
0.8520508	68.4333
0.8544922	68.85681
0.8569336	66.756996
0.859375	62.9757
0.8618164	60.038307
0.8642578	62.25336
0.8666992	69.06237
0.8691406	73.425385
0.87158203	68.97132
0.87402344	54.84362
0.87646484	38.716217
0.87890625	38.756096
0.88134766	53.87336
0.88378906	65.53412
0.88623047	65.96837
0.8886719	54.96818
0.8911133	37.50185
0.8935547	25.04854
0.8959961	29.74871
0.8984375	38.527058
0.9008789	39.934147
0.9033203	31.614223
0.9057617	15.309262
0.9082031	5.4593368
0.91064453	24.15068
0.91308594	37.25593
0.91552734	42.27618
0.91796875	40.485847
0.92041016	37.057297
0.92285156	37.703728
0.92529297	41.325768
0.9277344	42.307903
0.9301758	37.97096
0.9326172	30.232147
0.9350586	23.7381
0.9375	20.092695
0.9399414	14.65424
0.9423828	7.775325
0.9448242	21.503002
0.9472656	42.984818
0.94970703	61.78323
0.95214844	72.30546
0.95458984	73.19205
0.95703125	70.497406
0.95947266	75.63049
0.96191406	90.10363
0.96435547	102.62876
0.9667969	104.3641
0.9692383	96.71525
0.9716797	92.99473
0.9741211	106.95398
0.9765625	131.86966
0.9790039	151.13077
0.9814453	153.31976
0.9838867	134.16527
0.9863281	96.63674
0.98876953	55.910767
0.99121094	59.141373
0.99365234	98.6904
0.99609375	128.67828
0.99853516	135.4645
1.0009766	117.68156
1.003418	81.53125
1.0058594	37.496548
1.0083008	3.8209825
1.0107422	35.111866
1.0131836	54.361637
1.015625	63.376278
1.0180664	64.8782
1.0205078	60.179264
1.0229492	50.02253
1.0253906	37.986572
1.027832	34.838005
1.0302734	47.948605
1.0327148	67.55962
1.0351562	84.81335
1.0375977	94.47665
1.0400391	93.20278
1.0424805	79.87483
1.0449219	56.358673
1.0473633	28.705563
1.0498047	19.551
1.0522461	37.9683
1.0546875	50.486164
1.0571289	49.628654
1.0595703	34.773365
1.0620117	15.36676
1.0644531	40.676094
1.0668945	83.20126
1.0693359	124.96024
1.0717773	158.41867
1.0742188	177.64081
1.0766602	178.93816
1.0791016	161.89482
1.081543	130.61714
1.0839844	96.322235
1.0864258	81.1514
1.0888672	96.42344
1.0913086	118.26276
1.09375	125.91444
1.0961914	111.38456
1.0986328	75.090195
1.1010742	30.608248
1.1035156	60.08192
1.105957	125.19441
1.1083984	186.08437
1.1108398	232.90779
1.1132812	258.58493
1.1157227	258.28702
1.1181641	230.51607
1.1206055	178.09499
1.1230469	108.35176
1.1254883	34.227974
1.1279297	48.923847
1.1303711	107.32722
1.1328125	146.40373
1.1352539	162.14275
1.1376953	156.6238
1.1401367	136.64569
1.1425781	111.70758
1.1450195	90.566536
1.1474609	77.81243
1.1499023	73.827866
1.1523438	77.14665
1.1547852	84.47594
1.1572266	92.53162
1.159668	103.0151
1.1621094	122.94211
1.1645508	156.25417
1.1669922	198.55698
1.1694336	241.43239
1.171875	276.608
1.1743164	297.3004
1.1767578	299.17252
1.1791992	282.02972
1.1816406	251.7775
1.184082	221.03842
1.1865234	204.554
1.1889648	206.7384
1.1914062	216.88036
1.1938477	222.20273
1.1962891	217.7998
1.1987305	206.65578
1.2011719	195.48744
1.2036133	188.82907
1.2060547	184.75537
1.2084961	176.78357
1.2109375	159.63445
1.2133789	133.49515
1.2158203	105.82538
1.2182617	89.856285
1.2207031	91.73234
1.2231445	100.21606
1.2255859	103.945
1.2280273	100.75884
1.2304688	93.62231
1.2329102	85.32121
1.2353516	76.903534
1.237793	72.349915
1.2402344	83.41819
1.2426758	117.58876
1.2451172	168.31648
1.2475586	225.02217
1.25	276.97867
1.2524414	313.7574
1.2548828	326.9742
1.2573242	313.00082
1.2597656	275.54724
1.262207	226.82095
1.2646484	184.87157
1.2670898	162.18646
1.2695312	152.39476
1.2719727	141.81583
1.2744141	129.5641
1.2768555	126.17578
1.2792969	134.16183
1.2817383	140.85432
1.2841797	134.9804
1.2866211	117.16756
1.2890625	100.11228
1.2915039	97.499596
1.2939453	103.90379
1.2963867	106.72338
1.2988281	113.79229
1.3012695	150.81578
1.3037109	218.31833
1.3061523	291.88293
1.3085938	347.92877
1.3110352	371.2852
1.3134766	357.84387
1.315918	315.40805
1.3183594	262.29288
1.3208008	221.55707
1.3232422	204.8963
1.3256836	199.31438
1.328125	184.6336
1.3305664	154.58223
1.3330078	122.82852
1.3354492	119.81989
1.3378906	151.02968
1.340332	187.63034
1.3427734	211.13414
1.3452148	217.58969
1.3476562	211.3467
1.3500977	200.31853
1.3525391	191.65715
1.3549805	188.42432
1.3574219	188.94998
1.3598633	188.78809
1.3623047	182.96947
1.3647461	167.5202
1.3671875	140.87761
1.3696289	106.06779
1.3720703	76.24636
1.3745117	78.91432
1.3769531	111.433
1.3793945	145.25485
1.3818359	165.63766
1.3842773	167.35905
1.3867188	152.51297
1.3891602	132.99602
1.3916016	132.00444
1.394043	162.89763
1.3964844	210.36482
1.3989258	254.64642
1.4013672	283.25525
1.4038086	289.81122
1.40625	273.03732
1.4086914	236.30681
1.4111328	186.87633
1.4135742	134.47574
1.4160156	89.416916
1.418457	60.29876
1.4208984	49.866238
1.4233398	54.190556
1.4257812	71.97189
1.4282227	101.96945
1.4306641	138.63374
1.4331055	175.21443
1.4355469	206.17389
1.4379883	228.1329
1.4404297	239.88219
1.4428711	241.74953
1.4453125	235.09122
1.4477539	222.65398
1.4501953	209.37946
1.4526367	201.72821
1.4550781	203.75273
1.4575195	212.89793
1.4599609	221.4328
1.4624023	221.65627
1.4648438	209.4707
1.4672852	185.33861
1.4697266	153.34595
1.472168	118.83521
1.4746094	85.65563
1.4770508	55.518295
1.4794922	33.93742
1.4819336	39.841583
1.484375	63.733135
1.4868164	85.75946
1.4892578	99.127625
1.4916992	102.67612
1.4941406	99.7125
1.496582	97.12591
1.4990234	101.61753
1.5014648	114.29396
1.5039062	131.36769
1.5063477	149.05345
1.5087891	165.18927
1.5112305	178.50725
1.5136719	188.31067
1.5161133	194.94446
1.5185547	199.90837
1.5209961	204.68593
1.5234375	208.8644
1.5258789	209.41249
1.5283203	202.18399
1.5307617	184.68022
1.5332031	158.6553
1.5356445	131.91472
1.5380859	117.30266
1.5405273	121.89076
1.5429688	136.6913
1.5454102	148.68271
1.5478516	150.59782
1.550293	139.83997
1.5527344	116.15582
1.5551758	80.79569
1.5576172	36.852524
1.5600586	14.54373
1.5625	60.18239
1.5649414	100.26167
1.5673828	129.62868
1.5698242	146.50154
1.5722656	150.86427
1.574707	143.3969
1.5771484	125.18562
1.5795898	99.065315
1.5820312	72.7396
1.5844727	61.460686
1.5869141	71.42501
1.5893555	86.60561
1.5917969	96.86914
1.5942383	103.43951
1.5966797	111.2674
1.5991211	121.16714
1.6015625	128.44852
1.6040039	128.39723
1.6064453	121.48002
1.6088867	115.27779
1.6113281	119.5407
1.6137695	133.60327
1.6162109	145.59177
1.6186523	143.9285
1.6210938	123.54921
1.6235352	88.47781
1.6259766	61.297012
1.628418	82.708374
1.6308594	128.22362
1.6333008	167.62903
1.6357422	192.49626
1.6381836	203.9476
1.640625	208.30087
1.6430664	211.88062
1.6455078	215.7897
1.6479492	215.52345
1.6503906	205.37085
1.652832	182.60617
1.6552734	149.32875
1.6577148	113.20959
1.6601562	88.34054
1.6625977	87.46189
1.6650391	101.30755
1.6674805	112.44417
1.6699219	113.05428
1.6723633	102.86525
1.6748047	85.78461
1.6772461	67.66538
1.6796875	53.72281
1.6821289	44.735027
1.6845703	36.252148
1.6870117	25.127298
1.6894531	22.209019
1.6918945	42.302803
1.6943359	69.948524
1.6967773	94.74507
1.6992188	110.564
1.7016602	114.33398
1.7041016	108.27146
1.706543	103.05553
1.7089844	114.55795
1.7114258	145.0262
1.7138672	181.04839
1.7163086	209.25575
1.71875	221.35416
1.7211914	214.20256
1.7236328	189.6343
1.7260742	154.09422
1.7285156	117.7059
1.730957	91.325294
1.7333984	78.2652
1.7358398	69.143394
1.7382812	53.710064
1.7407227	29.75277
1.7431641	1.3339688
1.7456055	25.176859
1.7480469	44.53918
1.7504883	54.96741
1.7529297	58.620335
1.7553711	59.736786
1.7578125	61.571728
1.7602539	65.635735
1.7626953	73.40022
1.7651367	85.6293
1.7675781	99.94056
1.7700195	111.44957
1.7724609	115.49963
1.7749023	109.54279
1.7773438	93.584465
1.7797852	69.61151
1.7822266	40.83619
1.784668	14.934214
1.7871094	29.205563
1.7895508	56.38553
1.7919922	78.48635
1.7944336	91.53219
1.796875	93.0481
1.7993164	82.38116
1.8017578	61.691975
1.8041992	38.22485
1.8066406	32.268387
1.809082	49.688118
1.8115234	66.44199
1.8139648	73.173134
1.8164062	68.43195
1.8188477	54.86659
1.8212891	39.28176
1.8237305	34.249817
1.8261719	44.52148
1.8286133	58.330887
1.8310547	69.07569
1.8334961	76.44537
1.8359375	83.326645
1.8383789	93.08959
1.8408203	106.36731
1.8432617	120.17113
1.8457031	129.8799
1.8481445	131.49908
1.8505859	123.17796
1.8530273	106.41759
1.8554688	87.55818
1.8579102	78.44526
1.8603516	86.901566
1.862793	104.5499
1.8652344	119.47019
1.8676758	125.43461
1.8701172	120.93277
1.8725586	107.48186
1.875	88.45469
1.8774414	68.05368
1.8798828	50.061386
1.8823242	36.442287
1.8847656	27.833998
1.887207	27.656937
1.8896484	37.98431
1.8920898	52.301647
1.8945312	63.42566
1.8969727	66.402664
1.8994141	58.804554
1.9018555	41.430096
1.9042969	22.800266
1.9067383	34.437344
1.9091797	64.78327
1.9116211	94.428474
1.9140625	118.24265
1.9165039	134.37282
1.9189453	143.03767
1.9213867	145.91273
1.9238281	145.23212
1.9262695	142.96442
1.9287109	140.56026
1.9311523	139.14185
1.9335938	139.43365
1.9360352	141.21658
1.9384766	143.04863
1.940918	142.84628
1.9433594	138.99603
1.9458008	131.3723
1.9482422	121.93237
1.9506836	114.33275
1.953125	111.53957
1.9555664	112.42253
1.9580078	111.75056
1.9604492	103.95006
1.9628906	86.37804
1.965332	61.1532
1.9677734	39.60074
1.9702148	46.509872
1.9726562	71.91439
1.9750977	94.485054
1.9775391	107.37942
1.9799805	109.23449
1.9824219	101.83147
1.9848633	89.49495
1.9873047	78.230484
1.9897461	72.807655
1.9921875	72.32945
1.9946289	71.24887
1.9970703	64.9267
1.9995117	52.20327
2.0019531	35.577473
2.0043945	23.058632
2.006836	27.317564
2.0092773	39.54085
2.0117188	48.615074
2.0141602	51.55282
2.0166016	48.317608
2.019043	40.60734
2.0214844	31.94888
2.0239258	27.96669
2.0263672	31.802248
2.0288086	39.07806
2.03125	44.978966
2.0336914	47.407524
2.0361328	46.027073
2.0385742	41.534245
2.0410156	35.23233
2.043457	28.777891
2.0458984	24.109772
2.0483398	23.083416
2.0507812	25.98186
2.0532227	31.166319
2.055664	36.761402
2.0581055	41.368046
2.0605469	44.01553
2.0629883	44.118244
2.0654297	41.47235
2.067871	36.22084
2.0703125	28.795744
2.072754	19.852077
2.0751953	10.199287
2.0776367	1.0903742
2.0800781	8.121605
2.0825195	15.479105
2.084961	21.60825
2.0874023	27.075068
2.0898438	32.669704
2.0922852	38.819748
2.0947266	45.223396
2.097168	50.99708
2.0996094	55.074154
2.1020508	56.536724
2.1044922	54.81392
2.1069336	49.800854
2.109375	41.936222
2.1118164	32.260117
2.1142578	22.510653
2.1166992	15.383815
2.1191406	13.501236
2.121582	14.615099
2.1240234	14.615341
2.1264648	12.78656
2.1289062	12.848302
2.1313477	19.598757
2.133789	30.76315
2.1362305	43.02827
2.1386719	54.43406
2.1411133	63.89906
2.1435547	71.078705
2.145996	76.15524
2.1484375	79.414444
2.150879	80.816864
2.1533203	79.91266
2.1557617	76.262436
2.1582031	70.14938
2.1606445	63.16331
2.163086	58.03687
2.1655273	56.897892
2.1679688	58.935802
2.1704102	61.01731
2.1728516	60.342453
2.175293	55.763386
2.1777344	47.72721
2.1801758	37.75849
2.1826172	27.950396
2.1850586	20.734495
2.1875	18.298233
2.1899414	20.231441
2.1923828	24.220161
2.1948242	29.401798
2.1972656	36.18518
2.199707	44.76919
2.2021484	54.35268
2.2045898	63.356937
2.2070312	70.13678
2.2094727	73.67298
2.211914	73.99717
2.2143555	72.172966
2.2167969	69.76265
2.2192383	68.04555
2.2216797	67.66691
2.224121	69.12394
2.2265625	73.21915
2.229004	80.29135
2.2314453	88.974464
2.2338867	96.3436
2.2363281	99.3145
2.2387695	95.99197
2.241211	86.47759
2.2436523	73.267044
2.2460938	61.286385
2.2485352	56.222675
2.2509766	59.09296
2.253418	64.76384
2.2558594	68.159836
2.2583008	67.15587
2.2607422	62.02522
2.2631836	54.55241
2.265625	47.235966
2.2680664	42.275127
2.2705078	40.4346
2.2729492	41.039516
2.2753906	43.366894
2.277832	47.290363
2.2802734	52.49637
2.2827148	57.744564
2.2851562	61.112843
2.2875977	60.746696
2.290039	55.48346
2.2924805	45.146603
2.2949219	30.556795
2.2973633	13.527953
2.2998047	7.6503634
2.302246	23.991549
2.3046875	38.971436
2.307129	50.708813
2.3095703	58.848137
2.3120117	63.716522
2.3144531	66.08873
2.3168945	66.86156
2.319336	66.660416
2.3217773	65.55265
2.3242188	63.086407
2.3266602	58.64341
2.3291016	51.854996
2.331543	42.854813
2.3339844	32.319744
2.3364258	21.377684
2.3388672	11.629365
2.3413086	6.537196
2.34375	8.967981
2.3461914	12.007592
2.3486328	13.018076
2.3510742	12.014823
2.3535156	9.628283
2.355957	6.650025
2.3583984	3.6503718
2.3608398	0.76303226
2.3632812	3.2062285
2.3657227	7.9348955
2.368164	13.726274
2.3706055	20.183496
2.3730469	26.941727
2.3754883	33.977795
2.3779297	41.619602
2.380371	50.10505
2.3828125	59.013233
2.385254	67.0961
2.3876953	72.63164
2.3901367	74.028656
2.3925781	70.47354
2.3950195	62.53192
2.397461	52.662167
2.3999023	45.228863
2.4023438	43.97504
2.4047852	47.29237
2.4072266	50.164825
2.409668	49.36763
2.4121094	44.66113
2.4145508	38.275177
2.4169922	33.73777
2.4194336	33.02066
2.421875	34.432243
2.4243164	35.568554
2.4267578	36.137325
2.4291992	37.30499
2.4316406	39.438763
2.434082	41.122334
2.4365234	40.54888
2.4389648	37.255318
2.4414062	33.034756
2.4438477	31.597267
2.446289	35.067318
2.4487305	41.109497
2.4511719	46.38273
2.4536133	49.135807
2.4560547	49.069393
2.458496	46.712746
