
X-Axis: Frequency (hz)
Y-Axis: Fourier Amplitude (cm/s)
Number of Data Sets: 4


DATASET #1

Name: FAS H1 (cm/s)
Num Points: 2044
Info: 

X, Y Data:
0.009765625	0.39110878
0.012207031	0.60548985
0.014648438	0.87699497
0.017089844	1.1997664
0.01953125	1.5627152
0.021972656	1.9516823
0.024414062	2.3533897
0.026855469	2.7601311
0.029296875	3.1724567
0.03173828	3.5982025
0.034179688	4.047753
0.036621094	4.5273123
0.0390625	5.033017
0.041503906	5.5502033
0.043945312	6.059536
0.04638672	6.5460362
0.048828125	7.0040607
0.05126953	7.435725
0.053710938	7.8464737
0.056152344	8.240501
0.05859375	8.615142
0.061035156	8.95528
0.06347656	9.233165
0.06591797	9.416708
0.068359375	9.482206
0.07080078	9.424609
0.07324219	9.260387
0.075683594	9.020321
0.078125	8.733675
0.080566406	8.410919
0.08300781	8.036679
0.08544922	7.5802293
0.087890625	7.018643
0.09033203	6.3572564
0.09277344	5.634967
0.095214844	4.910747
0.09765625	4.2353344
0.10009766	3.6181443
0.10253906	3.009855
0.10498047	2.3226812
0.10742188	1.4959791
0.10986328	0.79705113
0.11230469	1.5608867
0.11474609	3.117329
0.1171875	4.8899145
0.11962891	6.7103367
0.12207031	8.453981
0.12451172	10.037248
0.12695312	11.446072
0.12939453	12.756951
0.13183594	14.123425
0.13427734	15.708341
0.13671875	17.585678
0.13916016	19.683247
0.14160156	21.809261
0.14404297	23.73249
0.14648438	25.26401
0.14892578	26.312569
0.15136719	26.905685
0.1538086	27.173012
0.15625	27.29162
0.1586914	27.404701
0.16113281	27.54672
0.16357422	27.61705
0.16601562	27.419647
0.16845703	26.741968
0.17089844	25.43105
0.17333984	23.441408
0.17578125	20.852016
0.17822266	17.858814
0.18066406	14.749674
0.18310547	11.862577
0.18554688	9.515643
0.18798828	7.8839173
0.19042969	6.8656936
0.1928711	6.1279173
0.1953125	5.3485246
0.1977539	4.381462
0.20019531	3.274892
0.20263672	2.3177972
0.20507812	2.1934967
0.20751953	3.1109173
0.20996094	4.4247355
0.21240234	5.7705584
0.21484375	7.005784
0.21728516	8.062105
0.21972656	8.912982
0.22216797	9.567844
0.22460938	10.06592
0.22705078	10.463645
0.22949219	10.817147
0.2319336	11.164235
0.234375	11.509384
0.2368164	11.817918
0.23925781	12.028576
0.24169922	12.09311
0.24414062	12.038318
0.24658203	12.021034
0.24902344	12.312141
0.25146484	13.151173
0.25390625	14.562595
0.25634766	16.346378
0.25878906	18.235489
0.26123047	20.020607
0.26367188	21.551744
0.26611328	22.65728
0.2685547	23.071358
0.2709961	22.449944
0.2734375	20.490566
0.2758789	17.113634
0.2783203	12.696634
0.28076172	8.622107
0.28320312	8.175808
0.28564453	11.685472
0.28808594	15.613793
0.29052734	18.270693
0.29296875	19.17045
0.29541016	18.427593
0.29785156	16.54554
0.30029297	14.203393
0.30273438	11.982816
0.30517578	10.168921
0.3076172	8.938533
0.3100586	8.916406
0.3125	10.910442
0.3149414	14.650898
0.3173828	19.111439
0.31982422	23.29949
0.32226562	26.410948
0.32470703	27.844107
0.32714844	27.223059
0.32958984	24.427391
0.33203125	19.63369
0.33447266	13.434241
0.33691406	7.609226
0.33935547	8.101183
0.34179688	14.183066
0.34423828	20.293928
0.3466797	24.900433
0.3491211	27.583788
0.3515625	28.478817
0.3540039	28.130322
0.3564453	27.253685
0.35888672	26.359818
0.36132812	25.45821
0.36376953	24.131042
0.36621094	21.912384
0.36865234	18.624784
0.37109375	14.532946
0.37353516	10.509275
0.37597656	8.5422125
0.37841797	10.406017
0.38085938	14.338756
0.38330078	18.347126
0.3857422	21.468287
0.3881836	23.151356
0.390625	23.089928
0.3930664	21.263395
0.3955078	18.025482
0.39794922	14.219612
0.40039062	11.320444
0.40283203	10.858382
0.40527344	12.313696
0.40771484	13.752649
0.41015625	13.990826
0.41259766	12.768057
0.41503906	10.57454
0.41748047	8.753484
0.41992188	9.057778
0.42236328	11.241292
0.4248047	13.493398
0.4272461	14.583993
0.4296875	13.984985
0.4321289	11.687675
0.4345703	8.240243
0.43701172	5.500484
0.43945312	7.152058
0.44189453	11.494761
0.44433594	15.883549
0.44677734	19.580498
0.44921875	22.452461
0.45166016	24.55276
0.45410156	25.868883
0.45654297	26.168072
0.45898438	25.017662
0.46142578	21.966362
0.4638672	16.791256
0.4663086	9.798514
0.46875	4.1655807
0.4711914	10.581542
0.4736328	19.416767
0.47607422	27.081062
0.47851562	32.561546
0.48095703	35.368958
0.48339844	35.477398
0.48583984	33.31487
0.48828125	29.741306
0.49072266	25.989662
0.49316406	23.400232
0.49560547	22.682352
0.49804688	23.280926
0.5004883	23.965214
0.5029297	23.7994
0.5053711	22.439966
0.5078125	20.010237
0.5102539	16.878246
0.5126953	13.408128
0.5151367	9.731815
0.5175781	5.8020797
0.52001953	3.5368016
0.52246094	8.280851
0.52490234	15.679566
0.52734375	23.644274
0.52978516	31.02862
0.53222656	36.790024
0.53466797	40.103203
0.5371094	40.473743
0.5395508	37.801678
0.5419922	32.4358
0.5444336	25.265667
0.546875	17.926008
0.5493164	13.14639
0.5517578	13.020467
0.5541992	14.774263
0.5566406	15.019868
0.55908203	12.65739
0.56152344	7.9296203
0.56396484	2.3970084
0.56640625	6.6630597
0.56884766	14.071997
0.57128906	21.251024
0.57373047	27.475658
0.5761719	31.921345
0.5786133	33.738274
0.5810547	32.352993
0.5834961	27.729069
0.5859375	20.515776
0.5883789	12.624366
0.5908203	10.70974
0.5932617	18.289022
0.5957031	27.3634
0.59814453	34.388447
0.60058594	37.982113
0.60302734	37.959602
0.60546875	35.38156
0.60791016	32.25179
0.61035156	30.394184
0.61279297	30.013334
0.6152344	29.885286
0.6176758	29.002394
0.6201172	27.491484
0.6225586	26.431866
0.625	26.847128
0.6274414	28.460207
0.6298828	29.894636
0.6323242	30.253878
0.6347656	30.522697
0.63720703	33.486675
0.63964844	40.587517
0.64208984	49.68051
0.64453125	57.329998
0.64697266	61.060112
0.64941406	60.202225
0.65185547	56.193817
0.6542969	52.23447
0.6567383	51.3025
0.6591797	53.052544
0.6616211	54.0198
0.6640625	50.901024
0.6665039	42.452255
0.6689453	29.632
0.6713867	15.049513
0.6738281	3.9825985
0.67626953	10.255136
0.67871094	15.871641
0.68115234	18.552729
0.68359375	20.601019
0.68603516	23.27502
0.68847656	25.555866
0.69091797	26.1472
0.6933594	25.18015
0.6958008	24.020569
0.6982422	23.54509
0.7006836	22.830116
0.703125	20.41095
0.7055664	16.598505
0.7080078	15.606635
0.7104492	21.600513
0.7128906	30.989813
0.71533203	39.808666
0.71777344	46.294994
0.72021484	50.189407
0.72265625	52.331306
0.72509766	54.124943
0.72753906	56.745506
0.72998047	60.45449
0.7324219	64.58211
0.7348633	68.09873
0.7373047	70.19031
0.7397461	70.52301
0.7421875	69.2279
0.7446289	66.75905
0.7470703	63.7725
0.7495117	61.038586
0.7519531	59.198788
0.75439453	58.279316
0.75683594	57.41234
0.75927734	55.30513
0.76171875	51.242416
0.76416016	46.022625
0.76660156	42.270195
0.76904297	42.796803
0.7714844	47.145638
0.7739258	51.834156
0.7763672	53.73115
0.7788086	51.52592
0.78125	45.59899
0.7836914	37.341034
0.7861328	28.215813
0.7885742	18.950321
0.7910156	9.472761
0.79345703	1.8369156
0.79589844	11.055867
0.79833984	20.583443
0.80078125	29.028261
0.80322266	36.782143
0.80566406	45.0319
0.80810547	54.574688
0.8105469	64.83582
0.8129883	74.21404
0.8154297	81.1521
0.8178711	84.93358
0.8203125	85.85486
0.8227539	84.82438
0.8251953	82.67629
0.8276367	79.67916
0.8300781	75.59772
0.83251953	70.13404
0.83496094	63.238953
0.83740234	55.014973
0.83984375	45.41019
0.84228516	34.164246
0.84472656	21.226704
0.84716797	7.5238714
0.8496094	7.4466166
0.8520508	18.272627
0.8544922	25.196136
0.8569336	27.338232
0.859375	25.743753
0.8618164	22.977068
0.8642578	21.315662
0.8666992	20.15412
0.8691406	17.000046
0.87158203	10.545432
0.87402344	4.2127514
0.87646484	13.472309
0.87890625	26.931524
0.88134766	42.207104
0.88378906	59.761932
0.88623047	79.535065
0.8886719	100.32424
0.8911133	120.31493
0.8935547	138.00394
0.8959961	152.72153
0.8984375	164.41882
0.9008789	172.97517
0.9033203	177.7451
0.9057617	177.90454
0.9082031	173.38577
0.91064453	165.55101
0.91308594	156.76608
0.91552734	148.78674
0.91796875	141.2747
0.92041016	132.2488
0.92285156	120.18518
0.92529297	105.63844
0.9277344	91.04573
0.9301758	78.88129
0.9326172	69.7469
0.9350586	62.790516
0.9375	57.970173
0.9399414	56.399517
0.9423828	57.854816
0.9448242	59.836517
0.9472656	59.88818
0.94970703	57.265488
0.95214844	52.42946
0.95458984	45.6911
0.95703125	36.72482
0.95947266	25.737665
0.96191406	16.670244
0.96435547	19.899067
0.9667969	31.098886
0.9692383	41.21298
0.9716797	47.610584
0.9741211	50.068005
0.9765625	49.14263
0.9790039	45.23439
0.9814453	38.447964
0.9838867	29.548243
0.9863281	22.193182
0.98876953	23.79947
0.99121094	33.313087
0.99365234	43.51977
0.99609375	51.400677
0.99853516	57.257175
1.0009766	63.156845
1.003418	70.89267
1.0058594	80.2937
1.0083008	89.62272
1.0107422	97.10843
1.0131836	101.79913
1.015625	103.43304
1.0180664	101.90796
1.0205078	97.01048
1.0229492	88.64776
1.0253906	77.23484
1.027832	63.704113
1.0302734	48.99479
1.0327148	33.490944
1.0351562	17.079813
1.0375977	1.497365
1.0400391	17.843838
1.0424805	34.148952
1.0449219	48.178795
1.0473633	59.399338
1.0498047	67.9087
1.0522461	73.97919
1.0546875	77.691376
1.0571289	78.998825
1.0595703	78.01913
1.0620117	75.13896
1.0644531	70.84601
1.0668945	65.58193
1.0693359	59.869804
1.0717773	54.568665
1.0742188	50.826317
1.0766602	49.524963
1.0791016	50.7269
1.081543	53.84057
1.0839844	58.137997
1.0864258	62.858025
1.0888672	67.043686
1.0913086	69.56846
1.09375	69.37303
1.0961914	65.68072
1.0986328	58.099636
1.1010742	46.695927
1.1035156	32.151752
1.105957	16.359106
1.1083984	9.863065
1.1108398	22.36042
1.1132812	34.72975
1.1157227	42.6775
1.1181641	44.881226
1.1206055	40.966892
1.1230469	31.577234
1.1254883	19.368185
1.1279297	15.288036
1.1303711	27.65013
1.1328125	42.39007
1.1352539	53.719463
1.1376953	59.719646
1.1401367	60.02745
1.1425781	55.54682
1.1450195	48.42703
1.1474609	42.137695
1.1499023	40.59533
1.1523438	44.74613
1.1547852	51.43357
1.1572266	57.02979
1.159668	59.33411
1.1621094	57.484818
1.1645508	51.622322
1.1669922	42.573254
1.1694336	31.527153
1.171875	19.931974
1.1743164	11.375175
1.1767578	15.72704
1.1791992	27.86147
1.1816406	40.916885
1.184082	52.715027
1.1865234	61.72981
1.1889648	66.81475
1.1914062	67.47473
1.1938477	64.2542
1.1962891	59.280357
1.1987305	56.59684
1.2011719	60.357204
1.2036133	70.64154
1.2060547	83.53704
1.2084961	94.81869
1.2109375	101.57378
1.2133789	102.35841
1.2158203	97.15025
1.2182617	87.28406
1.2207031	75.30625
1.2231445	64.60562
1.2255859	58.364655
1.2280273	57.516556
1.2304688	59.91283
1.2329102	62.422386
1.2353516	62.880608
1.237793	60.464264
1.2402344	55.523296
1.2426758	49.35817
1.2451172	43.937504
1.2475586	41.3878
1.25	42.93882
1.2524414	47.9653
1.2548828	54.50412
1.2573242	60.410664
1.2597656	63.97274
1.262207	64.11814
1.2646484	60.440693
1.2670898	53.11868
1.2695312	42.812233
1.2719727	30.58531
1.2744141	17.848759
1.2768555	6.731606
1.2792969	6.909108
1.2817383	13.755665
1.2841797	18.795055
1.2866211	22.414743
1.2890625	25.984953
1.2915039	30.47675
1.2939453	35.632183
1.2963867	40.287308
1.2988281	43.192715
1.3012695	43.544037
1.3037109	41.19277
1.3061523	36.737236
1.3085938	31.642805
1.3110352	28.289804
1.3134766	28.965797
1.315918	33.604023
1.3183594	40.197483
1.3208008	46.991913
1.3232422	52.98976
1.3256836	57.663425
1.328125	60.72946
1.3305664	62.053623
1.3330078	61.63217
1.3354492	59.623928
1.3378906	56.41998
1.340332	52.705097
1.3427734	49.40999
1.3452148	47.418297
1.3476562	47.081757
1.3500977	47.97119
1.3525391	49.194622
1.3549805	49.964325
1.3574219	49.975994
1.3598633	49.50791
1.3623047	49.270752
1.3647461	50.017258
1.3671875	52.07438
1.3696289	55.158268
1.3720703	58.60086
1.3745117	61.690563
1.3769531	63.853268
1.3793945	64.660126
1.3818359	63.77101
1.3842773	60.90548
1.3867188	55.887302
1.3891602	48.751247
1.3916016	39.8398
1.394043	29.844458
1.3964844	19.793192
1.3989258	11.277099
1.4013672	8.246218
1.4038086	12.742628
1.40625	19.69637
1.4086914	27.7648
1.4111328	36.775543
1.4135742	46.13724
1.4160156	54.93047
1.418457	62.378025
1.4208984	68.26704
1.4233398	73.10904
1.4257812	77.86664
1.4282227	83.262695
1.4306641	89.12917
1.4331055	94.37164
1.4355469	97.55385
1.4379883	97.61362
1.4404297	94.35467
1.4428711	88.62973
1.4453125	82.187836
1.4477539	77.08464
1.4501953	74.63841
1.4526367	74.57528
1.4550781	75.339096
1.4575195	75.21915
1.4599609	73.134346
1.4624023	68.73928
1.4648438	62.16374
1.4672852	53.687004
1.4697266	43.526764
1.472168	31.84524
1.4746094	19.102034
1.4770508	8.783771
1.4794922	15.763443
1.4819336	29.789076
1.484375	43.318077
1.4868164	54.627735
1.4892578	62.678898
1.4916992	66.83989
1.4941406	66.90951
1.496582	63.12509
1.4990234	56.13198
1.5014648	46.950344
1.5039062	36.99962
1.5063477	28.262707
1.5087891	23.330866
1.5112305	23.533731
1.5136719	26.554153
1.5161133	29.252075
1.5185547	29.909824
1.5209961	27.913998
1.5234375	23.322205
1.5258789	16.677937
1.5283203	9.060305
1.5307617	4.511072
1.5332031	9.692292
1.5356445	15.601101
1.5380859	19.503843
1.5405273	20.766642
1.5429688	19.258615
1.5454102	15.236157
1.5478516	9.410328
1.550293	4.5352187
1.5527344	8.975131
1.5551758	16.43936
1.5576172	23.19782
1.5600586	28.233847
1.5625	30.942102
1.5649414	31.040863
1.5673828	28.690872
1.5698242	24.775602
1.5722656	21.451975
1.574707	22.031404
1.5771484	27.46479
1.5795898	35.13651
1.5820312	42.388065
1.5844727	47.518505
1.5869141	49.525093
1.5893555	47.950714
1.5917969	42.83798
1.5942383	34.747944
1.5966797	24.996622
1.5991211	16.976435
1.6015625	17.986965
1.6040039	27.167225
1.6064453	37.611217
1.6088867	46.35007
1.6113281	52.123577
1.6137695	54.407063
1.6162109	53.27244
1.6186523	49.395027
1.6210938	44.081036
1.6235352	39.223885
1.6259766	36.849567
1.628418	37.855522
1.6308594	41.202972
1.6333008	44.986435
1.6357422	47.66811
1.6381836	48.35172
1.640625	46.65345
1.6430664	42.561695
1.6455078	36.362675
1.6479492	28.642216
1.6503906	20.438017
1.652832	13.9131
1.6552734	13.119753
1.6577148	17.899668
1.6601562	23.868168
1.6625977	29.165245
1.6650391	33.505085
1.6674805	37.15075
1.6699219	40.40346
1.6723633	43.2579
1.6748047	45.31719
1.6772461	45.99936
1.6796875	44.875668
1.6821289	41.97729
1.6845703	38.0026
1.6870117	34.37267
1.6894531	32.82419
1.6918945	34.163513
1.6943359	37.40582
1.6967773	40.731876
1.6992188	42.686954
1.7016602	42.565598
1.7041016	40.508617
1.706543	37.731598
1.7089844	36.739906
1.7114258	40.311996
1.7138672	48.911495
1.7163086	60.51538
1.71875	72.67196
1.7211914	83.43394
1.7236328	91.45351
1.7260742	95.96625
1.7285156	96.780106
1.730957	94.24746
1.7333984	89.21066
1.7358398	82.91198
1.7382812	76.84303
1.7407227	72.45193
1.7431641	70.62183
1.7456055	71.14281
1.7480469	72.73927
1.7504883	73.71153
1.7529297	72.61775
1.7553711	68.665596
1.7578125	61.90161
1.7602539	53.360043
1.7626953	45.22125
1.7651367	40.577477
1.7675781	41.456295
1.7700195	46.421097
1.7724609	52.328945
1.7749023	56.960384
1.7773438	59.43254
1.7797852	59.842022
1.7822266	58.891174
1.784668	57.507866
1.7871094	56.417698
1.7895508	55.79193
1.7919922	55.190628
1.7944336	53.853638
1.796875	51.09941
1.7993164	46.607796
1.8017578	40.53419
1.8041992	33.49817
1.8066406	26.509165
1.809082	20.843498
1.8115234	17.63882
1.8139648	16.875956
1.8164062	17.135656
1.8188477	16.995708
1.8212891	15.808101
1.8237305	13.598724
1.8261719	10.954638
1.8286133	9.066511
1.8310547	9.107056
1.8334961	10.528515
1.8359375	11.925597
1.8383789	12.910359
1.8408203	14.641715
1.8432617	19.12631
1.8457031	27.011206
1.8481445	37.281204
1.8505859	48.448566
1.8530273	59.066887
1.8554688	67.90145
1.8579102	74.07755
1.8603516	77.22475
1.862793	77.586426
1.8652344	76.05459
1.8676758	74.04815
1.8701172	73.10533
1.8725586	74.17692
1.875	77.070045
1.8774414	80.5939
1.8798828	83.21185
1.8823242	83.59514
1.8847656	80.888084
1.887207	74.774925
1.8896484	65.44897
1.8920898	53.586
1.8945312	40.517006
1.8969727	29.057932
1.8994141	25.028112
1.9018555	31.372822
1.9042969	41.918728
1.9067383	51.65471
1.9091797	58.401516
1.9116211	61.294308
1.9140625	60.33239
1.9165039	56.26812
1.9189453	50.550594
1.9213867	45.172993
1.9238281	42.07029
1.9262695	41.9149
1.9287109	43.64212
1.9311523	45.663845
1.9335938	47.15514
1.9360352	48.399082
1.9384766	50.454025
1.940918	54.306454
1.9433594	59.98234
1.9458008	66.44232
1.9482422	72.19089
1.9506836	75.86633
1.953125	76.53826
1.9555664	73.78511
1.9580078	67.641174
1.9604492	58.479485
1.9628906	46.894093
1.965332	33.5992
1.9677734	19.35126
1.9702148	4.912449
1.9726562	8.971159
1.9750977	21.498896
1.9775391	31.952957
1.9799805	39.72945
1.9824219	44.42396
1.9848633	45.87296
1.9873047	44.195465
1.9897461	39.84782
1.9921875	33.705784
1.9946289	27.268852
1.9970703	23.038692
1.9995117	23.705212
2.0019531	28.837076
2.0043945	35.6576
2.006836	42.145065
2.0092773	47.287495
2.0117188	50.63766
2.0141602	52.060863
2.0166016	51.606907
2.019043	49.436222
2.0214844	45.782295
2.0239258	40.957176
2.0263672	35.396797
2.0288086	29.721376
2.03125	24.751171
2.0336914	21.331541
2.0361328	19.799116
2.0385742	19.530165
2.0410156	19.4055
2.043457	18.566187
2.0458984	16.64304
2.0483398	13.652322
2.0507812	9.853848
2.0532227	5.6838813
2.055664	2.3660908
2.0581055	4.2352633
2.0605469	7.6734843
2.0629883	10.491883
2.0654297	12.259643
2.067871	12.72973
2.0703125	11.774253
2.072754	9.419196
2.0751953	5.9526076
2.0776367	2.992785
2.0800781	5.863435
2.0825195	10.946286
2.084961	15.850545
2.0874023	19.934027
2.0898438	22.851553
2.0922852	24.472523
2.0947266	24.86128
2.097168	24.224646
2.0996094	22.83076
2.1020508	20.934242
2.1044922	18.764317
2.1069336	16.59661
2.109375	14.86553
2.1118164	14.142877
2.1142578	14.731943
2.1166992	16.280018
2.1191406	18.113298
2.121582	19.792217
2.1240234	21.324806
2.1264648	23.067436
2.1289062	25.360582
2.1313477	28.106018
2.133789	30.66771
2.1362305	32.13833
2.1386719	31.67267
2.1411133	28.74617
2.1435547	23.376287
2.145996	16.571434
2.1484375	12.213469
2.150879	16.579786
2.1533203	25.906063
2.1557617	35.408142
2.1582031	43.129883
2.1606445	48.03904
2.163086	49.591812
2.1655273	47.644783
2.1679688	42.40954
2.1704102	34.407368
2.1728516	24.40721
2.175293	13.351952
2.1777344	2.5234897
2.1801758	8.308101
2.1826172	16.842455
2.1850586	23.101498
2.1875	26.717373
2.1899414	27.65742
2.1923828	26.187433
2.1948242	22.822746
2.1972656	18.26087
2.199707	13.334568
2.2021484	9.079453
2.2045898	6.9470387
2.2070312	7.608687
2.2094727	9.416624
2.211914	11.087477
2.2143555	12.323868
2.2167969	13.171184
2.2192383	13.710281
2.2216797	13.940522
2.224121	13.776875
2.2265625	13.101893
2.229004	11.827192
2.2314453	9.942695
2.2338867	7.583694
2.2363281	5.2862487
2.2387695	4.8114634
2.241211	7.376931
2.2436523	11.317037
2.2460938	15.539651
2.2485352	19.48714
2.2509766	22.71744
2.253418	24.856743
2.2558594	25.64541
2.2583008	25.014736
2.2607422	23.198284
2.2631836	20.911718
2.265625	19.549393
2.2680664	20.765738
2.2705078	24.947357
2.2729492	30.9492
2.2753906	37.39449
2.277832	43.22956
2.2802734	47.693466
2.2827148	50.251823
2.2851562	50.577896
2.2875977	48.560413
2.290039	44.32057
2.2924805	38.24479
2.2949219	31.062384
2.2973633	24.054966
2.2998047	19.452854
2.302246	19.655493
2.3046875	23.866251
2.307129	29.226871
2.3095703	33.901398
2.3120117	37.0637
2.3144531	38.432045
2.3168945	38.075726
2.319336	36.339924
2.3217773	33.7971
2.3242188	31.170368
2.3266602	29.162315
2.3291016	28.16231
2.331543	28.019222
2.3339844	28.168495
2.3364258	28.015976
2.3388672	27.2526
2.3413086	26.000713
2.34375	24.849901
2.3461914	24.711094
2.3486328	26.298391
2.3510742	29.52963
2.3535156	33.60195
2.355957	37.520382
2.3583984	40.42881
2.3608398	41.695618
2.3632812	40.927456
2.3657227	37.98153
2.368164	32.984695
2.3706055	26.362637
2.3730469	18.934652
2.3754883	12.379677
2.3779297	10.376901
2.380371	13.943515
2.3828125	18.498508
2.385254	21.572517
2.3876953	22.340109
2.3901367	20.61476
2.3925781	16.649893
2.3950195	11.258656
2.397461	7.2126765
2.3999023	10.484239
2.4023438	17.8405
2.4047852	25.574781
2.4072266	32.626945
2.409668	38.5288
2.4121094	43.042767
2.4145508	46.07809
2.4169922	47.658657
2.4194336	47.911083
2.421875	47.06211
2.4243164	45.42922
2.4267578	43.385887
2.4291992	41.292385
2.4316406	39.405304
2.434082	37.814342
2.4365234	36.45117
2.4389648	35.171753
2.4414062	33.854923
2.4438477	32.465794
2.446289	31.050158
2.4487305	29.671589
2.4511719	28.339403
2.4536133	26.976532
2.4560547	25.448122
2.458496	23.629671
