
X-Axis: Frequency (hz)
Y-Axis: Fourier Amplitude (cm/s)
Number of Data Sets: 4


DATASET #1

Name: FAS H1 (cm/s)
Num Points: 2044
Info: 

X, Y Data:
0.009765625	0.268305
0.012207031	0.3639669
0.014648438	0.4600856
0.017089844	0.54824513
0.01953125	0.62140423
0.021972656	0.6742512
0.024414062	0.7032622
0.026855469	0.7072149
0.029296875	0.68685496
0.03173828	0.6430404
0.034179688	0.57581496
0.036621094	0.48616755
0.0390625	0.37897357
0.041503906	0.2671104
0.043945312	0.18645325
0.04638672	0.20713611
0.048828125	0.31601462
0.05126953	0.46030524
0.053710938	0.6284927
0.056152344	0.8209498
0.05859375	1.0342227
0.061035156	1.25852
0.06347656	1.4812517
0.06591797	1.6911621
0.068359375	1.8794776
0.07080078	2.038221
0.07324219	2.1589165
0.075683594	2.233602
0.078125	2.2568538
0.080566406	2.2278
0.08300781	2.153162
0.08544922	2.050458
0.087890625	1.9468483
0.09033203	1.8696042
0.09277344	1.8313117
0.095214844	1.8206049
0.09765625	1.8079002
0.10009766	1.7629
0.10253906	1.6722151
0.10498047	1.5503243
0.10742188	1.4465156
0.10986328	1.441468
0.11230469	1.5972311
0.11474609	1.8877475
0.1171875	2.220891
0.11962891	2.5042112
0.12207031	2.673983
0.12451172	2.6975317
0.12695312	2.5667741
0.12939453	2.2909381
0.13183594	1.8942505
0.13427734	1.4199117
0.13671875	0.9337456
0.13916016	0.5221424
0.14160156	0.30442053
0.14404297	0.35583854
0.14648438	0.53649205
0.14892578	0.81287605
0.15136719	1.1777924
0.1538086	1.5759412
0.15625	1.9279637
0.1586914	2.1674294
0.16113281	2.2890656
0.16357422	2.3879013
0.16601562	2.6162379
0.16845703	3.0269856
0.17089844	3.5057693
0.17333984	3.8818734
0.17578125	4.025234
0.17822266	3.8679862
0.18066406	3.398097
0.18310547	2.6599326
0.18554688	1.78296
0.18798828	1.1322801
0.19042969	1.3681197
0.1928711	2.0485215
0.1953125	2.55863
0.1977539	2.6636026
0.20019531	2.2639484
0.20263672	1.3816668
0.20507812	0.39744157
0.20751953	1.446597
0.20996094	2.781233
0.21240234	3.8685179
0.21484375	4.5908327
0.21728516	4.9315014
0.21972656	4.944082
0.22216797	4.7256227
0.22460938	4.3963084
0.22705078	4.075216
0.22949219	3.8417106
0.2319336	3.707882
0.234375	3.6482174
0.2368164	3.6629777
0.23925781	3.790641
0.24169922	4.048663
0.24414062	4.3876076
0.24658203	4.720458
0.24902344	4.975986
0.25146484	5.1243534
0.25390625	5.1767797
0.25634766	5.164903
0.25878906	5.1047726
0.26123047	4.9790287
0.26367188	4.7648883
0.26611328	4.4753222
0.2685547	4.161677
0.2709961	3.875439
0.2734375	3.6326618
0.2758789	3.4160686
0.2783203	3.2045062
0.28076172	2.999477
0.28320312	2.8369148
0.28564453	2.7922723
0.28808594	2.9759681
0.29052734	3.4613647
0.29296875	4.1545615
0.29541016	4.7849274
0.29785156	5.046037
0.30029297	4.7707086
0.30273438	4.0601187
0.30517578	3.3019345
0.3076172	2.9321947
0.3100586	2.905501
0.3125	2.7990372
0.3149414	2.4227724
0.3173828	1.9329073
0.31982422	1.6057323
0.32226562	1.4147037
0.32470703	1.1000172
0.32714844	0.9806018
0.32958984	1.8086066
0.33203125	3.028353
0.33447266	4.19131
0.33691406	5.1186576
0.33935547	5.720072
0.34179688	5.899817
0.34423828	5.566461
0.3466797	4.7632318
0.3491211	3.8423986
0.3515625	3.4596796
0.3540039	3.781929
0.3564453	4.101229
0.35888672	3.9413457
0.36132812	3.7404277
0.36376953	4.6843333
0.36621094	6.614096
0.36865234	8.250697
0.37109375	8.666254
0.37353516	7.5706573
0.37597656	5.3148627
0.37841797	2.6736038
0.38085938	0.5197275
0.38330078	1.019015
0.3857422	1.5915242
0.3881836	1.9360919
0.390625	2.5066006
0.3930664	3.2136772
0.3955078	3.8228798
0.39794922	4.23113
0.40039062	4.449064
0.40283203	4.5734
0.40527344	4.6719537
0.40771484	4.6119103
0.41015625	4.1696177
0.41259766	3.4669766
0.41503906	3.4629946
0.41748047	4.9286375
0.41992188	7.098411
0.42236328	9.217225
0.4248047	10.871005
0.4272461	11.814208
0.4296875	11.970566
0.4321289	11.460126
0.4345703	10.470698
0.43701172	9.048372
0.43945312	7.212637
0.44189453	5.6070333
0.44433594	5.752481
0.44677734	7.446515
0.44921875	8.977242
0.45166016	9.586745
0.45410156	9.379665
0.45654297	8.847131
0.45898438	8.456835
0.46142578	8.3478
0.4638672	8.251808
0.4663086	7.6952906
0.46875	6.3380938
0.4711914	4.2662997
0.4736328	2.3114173
0.47607422	2.5710552
0.47851562	4.101453
0.48095703	5.353813
0.48339844	6.274797
0.48583984	6.9963837
0.48828125	7.475596
0.49072266	7.5656586
0.49316406	7.230058
0.49560547	6.7015395
0.49804688	6.468238
0.5004883	6.8481092
0.5029297	7.539366
0.5053711	7.9927835
0.5078125	7.9040613
0.5102539	7.2219844
0.5126953	5.9668984
0.5151367	4.2124705
0.5175781	2.4117846
0.52001953	2.2754033
0.52246094	3.6641643
0.52490234	4.677751
0.52734375	5.0282254
0.52978516	5.295428
0.53222656	6.2079344
0.53466797	7.7351365
0.5371094	9.467871
0.5395508	11.204241
0.5419922	12.743327
0.5444336	13.679326
0.546875	13.653622
0.5493164	12.690438
0.5517578	11.213355
0.5541992	9.775687
0.5566406	8.775499
0.55908203	8.35516
0.56152344	8.465079
0.56396484	8.948123
0.56640625	9.585364
0.56884766	10.094891
0.57128906	10.096545
0.57373047	9.214076
0.5761719	7.419964
0.5786133	5.402041
0.5810547	4.4136877
0.5834961	4.545166
0.5859375	4.494276
0.5883789	3.7017827
0.5908203	2.3760984
0.5932617	1.3570534
0.5957031	1.8319955
0.59814453	2.488914
0.60058594	3.0327575
0.60302734	4.4340944
0.60546875	6.6793075
0.60791016	8.847851
0.61035156	10.199446
0.61279297	10.41861
0.6152344	9.62235
0.6176758	8.323135
0.6201172	7.2810593
0.6225586	7.0014496
0.625	7.2393565
0.6274414	7.5472445
0.6298828	8.048717
0.6323242	9.21957
0.6347656	10.871826
0.63720703	12.032507
0.63964844	11.861985
0.64208984	10.370324
0.64453125	8.7134905
0.64697266	8.754833
0.64941406	10.839794
0.65185547	13.634506
0.6542969	16.213507
0.6567383	18.326977
0.6591797	20.060768
0.6616211	21.38869
0.6640625	21.97719
0.6665039	21.561348
0.6689453	20.409632
0.6713867	19.275927
0.6738281	18.775143
0.67626953	18.734295
0.67871094	18.350515
0.68115234	16.982147
0.68359375	14.630112
0.68603516	11.763113
0.68847656	8.933439
0.69091797	6.976879
0.6933594	7.280566
0.6958008	9.627218
0.6982422	12.347634
0.7006836	14.45484
0.703125	15.783491
0.7055664	16.708567
0.7080078	17.638859
0.7104492	18.704153
0.7128906	19.864069
0.71533203	20.900085
0.71777344	21.353832
0.72021484	20.85891
0.72265625	19.598516
0.72509766	18.341648
0.72753906	17.762245
0.72998047	17.64641
0.7324219	17.24261
0.7348633	16.145973
0.7373047	14.476357
0.7397461	12.57632
0.7421875	10.799355
0.7446289	9.515514
0.7470703	9.15582
0.7495117	10.028809
0.7519531	12.047005
0.75439453	14.843803
0.75683594	17.959358
0.75927734	20.823528
0.76171875	22.795599
0.76416016	23.327274
0.76660156	22.102728
0.76904297	19.143274
0.7714844	14.882051
0.7739258	10.059464
0.7763672	5.5069623
0.7788086	2.4520164
0.78125	3.0002072
0.7836914	4.699587
0.7861328	6.7168026
0.7885742	9.393405
0.7910156	12.405126
0.79345703	15.167068
0.79589844	17.35574
0.79833984	19.299698
0.80078125	21.801758
0.80322266	25.266933
0.80566406	29.298548
0.80810547	33.10573
0.8105469	35.99903
0.8129883	37.72383
0.8154297	38.434834
0.8178711	38.357555
0.8203125	37.633152
0.8227539	36.415142
0.8251953	34.84685
0.8276367	32.919636
0.8300781	30.4176
0.83251953	27.034893
0.83496094	22.724525
0.83740234	18.090216
0.83984375	14.363018
0.84228516	12.429458
0.84472656	11.481695
0.84716797	9.923978
0.8496094	7.154486
0.8520508	4.1003475
0.8544922	4.175249
0.8569336	6.995078
0.859375	9.376436
0.8618164	10.606907
0.8642578	10.881576
0.8666992	10.861526
0.8691406	11.181414
0.87158203	11.90371
0.87402344	12.706226
0.87646484	13.536987
0.87890625	14.530029
0.88134766	15.322507
0.88378906	15.235229
0.88623047	14.399282
0.8886719	14.378143
0.8911133	16.478046
0.8935547	19.484877
0.8959961	21.266865
0.8984375	20.660479
0.9008789	17.865093
0.9033203	14.339791
0.9057617	12.33639
0.9082031	12.972524
0.91064453	14.730851
0.91308594	16.02286
0.91552734	16.529028
0.91796875	16.534052
0.92041016	16.141748
0.92285156	15.096844
0.92529297	13.104596
0.9277344	10.19631
0.9301758	6.937465
0.9326172	4.508173
0.9350586	4.087612
0.9375	4.5652604
0.9399414	4.5898533
0.9423828	4.2825155
0.9448242	4.4348087
0.9472656	5.6846495
0.94970703	8.045489
0.95214844	11.189589
0.95458984	14.781749
0.95703125	18.647472
0.95947266	22.655642
0.96191406	26.375044
0.96435547	29.059898
0.9667969	30.087399
0.9692383	29.351212
0.9716797	27.29216
0.9741211	24.600237
0.9765625	21.839193
0.9790039	19.408922
0.9814453	17.851082
0.9838867	17.835638
0.9863281	19.558952
0.98876953	22.469625
0.99121094	25.753157
0.99365234	28.772015
0.99609375	31.097498
0.99853516	32.355095
1.0009766	32.196564
1.003418	30.441051
1.0058594	27.272358
1.0083008	23.414133
1.0107422	20.034933
1.0131836	18.186644
1.015625	18.116508
1.0180664	19.095198
1.0205078	19.862564
1.0229492	19.241613
1.0253906	16.74291
1.027832	13.220469
1.0302734	11.227902
1.0327148	12.52274
1.0351562	15.045972
1.0375977	16.866594
1.0400391	17.72391
1.0424805	18.007637
1.0449219	17.961317
1.0473633	17.53907
1.0498047	16.70367
1.0522461	15.634937
1.0546875	14.665421
1.0571289	14.003837
1.0595703	13.511535
1.0620117	12.888599
1.0644531	12.0917
1.0668945	11.568843
1.0693359	11.999153
1.0717773	13.493843
1.0742188	15.352241
1.0766602	16.774635
1.0791016	17.474878
1.081543	17.82347
1.0839844	18.534973
1.0864258	20.069138
1.0888672	22.341454
1.0913086	24.961462
1.09375	27.49946
1.0961914	29.616625
1.0986328	31.187471
1.1010742	32.30814
1.1035156	33.104992
1.105957	33.593395
1.1083984	33.764286
1.1108398	33.634308
1.1132812	33.07866
1.1157227	31.766724
1.1181641	29.45094
1.1206055	26.314383
1.1230469	23.000196
1.1254883	20.264153
1.1279297	18.49546
1.1303711	17.524572
1.1328125	16.87759
1.1352539	16.12614
1.1376953	15.086298
1.1401367	13.969934
1.1425781	13.519953
1.1450195	14.645766
1.1474609	17.312695
1.1499023	20.395298
1.1523438	22.70575
1.1547852	23.755413
1.1572266	24.074621
1.159668	24.898
1.1621094	27.00761
1.1645508	29.987715
1.1669922	32.903763
1.1694336	34.99667
1.171875	35.641582
1.1743164	34.271694
1.1767578	30.671574
1.1791992	25.283745
1.1816406	19.086782
1.184082	13.068491
1.1865234	7.763719
1.1889648	3.808215
1.1914062	4.9634943
1.1938477	9.421266
1.1962891	13.911878
1.1987305	17.587511
1.2011719	20.194153
1.2036133	21.925304
1.2060547	23.09594
1.2084961	23.74983
1.2109375	23.73157
1.2133789	23.08767
1.2158203	22.11429
1.2182617	20.944181
1.2207031	19.360407
1.2231445	17.182802
1.2255859	14.621805
1.2280273	12.128981
1.2304688	10.062189
1.2329102	8.663257
1.2353516	8.241956
1.237793	9.110072
1.2402344	11.298965
1.2426758	14.389972
1.2451172	17.619427
1.2475586	20.225275
1.25	21.794233
1.2524414	22.412294
1.2548828	22.567667
1.2573242	22.7868
1.2597656	23.127977
1.262207	23.033316
1.2646484	21.767298
1.2670898	18.936522
1.2695312	14.677629
1.2719727	9.644391
1.2744141	5.435689
1.2768555	5.6608586
1.2792969	8.57328
1.2817383	10.584807
1.2841797	10.920263
1.2866211	9.693317
1.2890625	7.3274755
1.2915039	4.326351
1.2939453	1.7301669
1.2963867	3.4831333
1.2988281	6.5234623
1.3012695	8.9623375
1.3037109	10.222765
1.3061523	9.996704
1.3085938	8.48576
1.3110352	6.870865
1.3134766	7.488579
1.315918	10.704793
1.3183594	14.765495
1.3208008	18.590067
1.3232422	21.637959
1.3256836	23.577936
1.328125	24.191628
1.3305664	23.384268
1.3330078	21.261923
1.3354492	18.194393
1.3378906	14.785307
1.340332	11.793672
1.3427734	10.107261
1.3452148	10.424335
1.3476562	12.476058
1.3500977	15.327187
1.3525391	18.133472
1.3549805	20.271423
1.3574219	21.363352
1.3598633	21.339457
1.3623047	20.412716
1.3647461	18.96479
1.3671875	17.448217
1.3696289	16.324816
1.3720703	15.95265
1.3745117	16.404762
1.3769531	17.359974
1.3793945	18.205748
1.3818359	18.332874
1.3842773	17.458248
1.3867188	15.780644
1.3891602	13.87469
1.3916016	12.397401
1.394043	11.796029
1.3964844	12.170116
1.3989258	13.310161
1.4013672	14.841604
1.4038086	16.382877
1.40625	17.633898
1.4086914	18.375204
1.4111328	18.436234
1.4135742	17.720617
1.4160156	16.314707
1.418457	14.610113
1.4208984	13.313385
1.4233398	13.149901
1.4257812	14.292802
1.4282227	16.251215
1.4306641	18.327202
1.4331055	19.889988
1.4355469	20.45818
1.4379883	19.795465
1.4404297	17.97211
1.4428711	15.308248
1.4453125	12.220705
1.4477539	9.065544
1.4501953	6.0756
1.4526367	3.4820013
1.4550781	2.011699
1.4575195	2.3872983
1.4599609	2.7188828
1.4624023	1.8899679
1.4648438	0.3173103
1.4672852	3.4715385
1.4697266	7.2425566
1.472168	10.992447
1.4746094	14.159675
1.4770508	16.443033
1.4794922	17.994429
1.4819336	19.315096
1.484375	20.824549
1.4868164	22.583254
1.4892578	24.450834
1.4916992	26.307348
1.4941406	28.104439
1.496582	29.867598
1.4990234	31.650095
1.5014648	33.402313
1.5039062	34.9119
1.5063477	35.897015
1.5087891	36.126934
1.5112305	35.49976
1.5136719	34.103924
1.5161133	32.195415
1.5185547	30.039825
1.5209961	27.828808
1.5234375	25.86049
1.5258789	24.667782
1.5283203	24.585106
1.5307617	25.169802
1.5332031	25.455496
1.5356445	24.690372
1.5380859	22.686752
1.5405273	19.720224
1.5429688	16.238667
1.5454102	12.62243
1.5478516	9.183647
1.550293	6.4467907
1.5527344	5.446772
1.5551758	6.5458508
1.5576172	8.552135
1.5600586	10.660065
1.5625	12.666336
1.5649414	14.573551
1.5673828	16.327696
1.5698242	17.685286
1.5722656	18.340528
1.574707	18.20986
1.5771484	17.605425
1.5795898	17.116358
1.5820312	17.215815
1.5844727	17.943466
1.5869141	19.033367
1.5893555	20.23337
1.5917969	21.422333
1.5942383	22.567692
1.5966797	23.687815
1.5991211	24.827604
1.6015625	25.994396
1.6040039	27.080667
1.6064453	27.876171
1.6088867	28.17931
1.6113281	27.872932
1.6137695	26.84778
1.6162109	24.899467
1.6186523	21.8354
1.6210938	17.74537
1.6235352	13.097864
1.6259766	8.4681835
1.628418	4.1338506
1.6308594	0.57295996
1.6333008	4.216522
1.6357422	8.043394
1.6381836	11.312372
1.640625	13.768492
1.6430664	15.268085
1.6455078	15.708982
1.6479492	15.077615
1.6503906	13.584314
1.652832	11.638235
1.6552734	9.514148
1.6577148	7.004477
1.6601562	3.5829635
1.6625977	1.066575
1.6650391	6.744749
1.6674805	12.786236
1.6699219	18.299648
1.6723633	22.472366
1.6748047	24.82449
1.6772461	25.298317
1.6796875	24.157923
1.6821289	21.833838
1.6845703	18.865585
1.6870117	15.873734
1.6894531	13.342621
1.6918945	11.351179
1.6943359	9.81228
1.6967773	8.969031
1.6992188	8.997326
1.7016602	9.30508
1.7041016	9.20863
1.706543	8.69012
1.7089844	8.096776
1.7114258	7.465588
1.7138672	6.5544143
1.7163086	5.3731723
1.71875	4.1993995
1.7211914	3.2604818
1.7236328	3.2063727
1.7260742	4.9038234
1.7285156	7.624829
1.730957	10.505662
1.7333984	13.175785
1.7358398	15.584643
1.7382812	17.746521
1.7407227	19.5959
1.7431641	21.055676
1.7456055	22.10877
1.7480469	22.700006
1.7504883	22.641907
1.7529297	21.756329
1.7553711	20.143124
1.7578125	18.248829
1.7602539	16.572218
1.7626953	15.255579
1.7651367	14.104368
1.7675781	13.010278
1.7700195	12.064363
1.7724609	11.183194
1.7749023	9.959409
1.7773438	8.125343
1.7797852	6.1302347
1.7822266	5.4191256
1.784668	6.863593
1.7871094	9.380341
1.7895508	12.217927
1.7919922	15.082362
1.7944336	17.611998
1.796875	19.425434
1.7993164	20.378727
1.8017578	20.646946
1.8041992	20.509892
1.8066406	20.040403
1.809082	19.065622
1.8115234	17.473679
1.8139648	15.513352
1.8164062	13.754031
1.8188477	12.667748
1.8212891	12.217107
1.8237305	12.008027
1.8261719	11.729447
1.8286133	11.289937
1.8310547	10.737651
1.8334961	10.191981
1.8359375	9.775953
1.8383789	9.521885
1.8408203	9.351147
1.8432617	9.17931
1.8457031	9.035899
1.8481445	9.088164
1.8505859	9.556779
1.8530273	10.566107
1.8554688	12.029664
1.8579102	13.672333
1.8603516	15.140354
1.862793	16.10046
1.8652344	16.29949
1.8676758	15.593745
1.8701172	13.986252
1.8725586	11.705462
1.875	9.282038
1.8774414	7.449495
1.8798828	6.608173
1.8823242	6.3519573
1.8847656	6.125699
1.887207	5.8405094
1.8896484	5.662851
1.8920898	5.66693
1.8945312	5.742629
1.8969727	5.720281
1.8994141	5.5739055
1.9018555	5.547937
1.9042969	5.994602
1.9067383	7.0955005
1.9091797	8.925376
1.9116211	11.471112
1.9140625	14.435275
1.9165039	17.32084
1.9189453	19.728025
1.9213867	21.503527
1.9238281	22.661665
1.9262695	23.266186
1.9287109	23.443151
1.9311523	23.46956
1.9335938	23.762333
1.9360352	24.682625
1.9384766	26.260223
1.940918	28.094446
1.9433594	29.564156
1.9458008	30.185204
1.9482422	29.87332
1.9506836	28.965723
1.953125	27.982437
1.9555664	27.2718
1.9580078	26.821978
1.9604492	26.384956
1.9628906	25.73127
1.965332	24.773958
1.9677734	23.489058
1.9702148	21.769379
1.9726562	19.4075
1.9750977	16.252424
1.9775391	12.375365
1.9799805	8.091669
1.9824219	3.8404753
1.9848633	0.18836339
1.9873047	3.181068
1.9897461	5.7147183
1.9921875	7.7742467
1.9946289	9.528622
1.9970703	10.958714
1.9995117	11.852794
2.0019531	12.002198
2.0043945	11.407265
2.006836	10.332428
2.0092773	9.206292
2.0117188	8.449086
2.0141602	8.303853
2.0166016	8.733898
2.019043	9.45322
2.0214844	10.052824
2.0239258	10.138511
2.0263672	9.455015
2.0288086	7.974323
2.03125	5.9244733
2.0336914	3.8447137
2.0361328	2.9962292
2.0385742	4.2327504
2.0410156	6.1175733
2.043457	7.89055
2.0458984	9.4851885
2.0483398	11.044218
2.0507812	12.621991
2.0532227	14.05307
2.055664	15.110686
2.0581055	15.75396
2.0605469	16.19598
2.0629883	16.712477
2.0654297	17.363329
2.067871	17.941675
2.0703125	18.195297
2.072754	18.044136
2.0751953	17.598886
2.0776367	17.007036
2.0800781	16.31588
2.0825195	15.536543
2.084961	14.833637
2.0874023	14.518223
2.0898438	14.706376
2.0922852	15.083489
2.0947266	15.196381
2.097168	14.882941
2.0996094	14.358052
2.1020508	13.917069
2.1044922	13.557969
2.1069336	12.962951
2.109375	11.826235
2.1118164	10.10533
2.1142578	8.011463
2.1166992	5.829294
2.1191406	3.7145627
2.121582	1.6300402
2.1240234	0.5406042
2.1264648	2.7624183
2.1289062	4.9507837
2.1313477	6.964111
2.133789	8.71044
2.1362305	10.135807
2.1386719	11.19944
2.1411133	11.880557
2.1435547	12.194441
2.145996	12.158477
2.1484375	11.721761
2.150879	10.755934
2.1533203	9.154661
2.1557617	6.9690795
2.1582031	4.467519
2.1606445	2.1004276
2.163086	1.0664191
2.1655273	2.4217439
2.1679688	4.0902443
2.1704102	5.817033
2.1728516	7.2960725
2.175293	8.08386
2.1777344	7.9162197
2.1801758	6.893989
2.1826172	5.444262
2.1850586	4.0880036
2.1875	3.1181746
2.1899414	2.4783945
2.1923828	2.0756817
2.1948242	2.0181942
2.1972656	2.3526566
2.199707	2.9513838
2.2021484	3.7394264
2.2045898	4.6964693
2.2070312	5.744013
2.2094727	6.6956625
2.211914	7.3003635
2.2143555	7.3634443
2.2167969	6.882155
2.2192383	6.1022778
2.2216797	5.4110975
2.224121	5.0704618
2.2265625	5.1034293
2.229004	5.56512
2.2314453	6.6138554
2.2338867	8.164086
2.2363281	9.814205
2.2387695	11.115365
2.241211	11.808927
2.2436523	11.949886
2.2460938	11.869221
2.2485352	11.909718
2.2509766	12.094815
2.253418	12.143616
2.2558594	11.846702
2.2583008	11.35674
2.2607422	11.096613
2.2631836	11.314316
2.265625	11.817102
2.2680664	12.30135
2.2705078	12.732535
2.2729492	13.281705
2.2753906	14.002965
2.277832	14.704418
2.2802734	15.119868
2.2827148	15.079926
2.2851562	14.519576
2.2875977	13.419976
2.290039	11.80692
2.2924805	9.81687
2.2949219	7.7493935
2.2973633	6.023381
2.2998047	4.9900026
2.302246	4.661585
2.3046875	4.719543
2.307129	4.810513
2.3095703	4.670101
2.3120117	4.1598372
2.3144531	3.322358
2.3168945	2.3817546
2.319336	1.7484279
2.3217773	1.9541504
2.3242188	2.849577
2.3266602	3.9010046
2.3291016	4.7117233
2.331543	4.99053
2.3339844	4.6388903
2.3364258	3.8364851
2.3388672	2.9838278
2.3413086	2.359264
2.34375	1.7294946
2.3461914	0.93332994
2.3486328	1.854209
2.3510742	4.0057187
2.3535156	6.1940856
2.355957	7.915258
2.3583984	8.989293
2.3608398	9.645385
2.3632812	10.341894
2.3657227	11.279953
2.368164	12.181793
2.3706055	12.649176
2.3730469	12.558646
2.3754883	12.132194
2.3779297	11.731002
2.380371	11.545408
2.3828125	11.469751
2.385254	11.292256
2.3876953	10.935384
2.3901367	10.504729
2.3925781	10.148286
2.3950195	9.86748
2.397461	9.469817
2.3999023	8.724243
2.4023438	7.5804973
2.4047852	6.317473
2.4072266	5.492148
2.409668	5.435208
2.4121094	5.8108373
2.4145508	6.2309775
2.4169922	6.7598166
2.4194336	7.6363153
2.421875	8.811137
2.4243164	9.936902
2.4267578	10.668255
2.4291992	10.854219
2.4316406	10.581183
2.434082	10.118339
2.4365234	9.746995
2.4389648	9.530577
2.4414062	9.2789345
2.4438477	8.797948
2.446289	8.125712
2.4487305	7.512688
