
X-Axis: Frequency (hz)
Y-Axis: Fourier Amplitude (cm/s)
Number of Data Sets: 4


DATASET #1

Name: FAS H1 (cm/s)
Num Points: 2044
Info: 

X, Y Data:
0.009765625	0.14831123
0.012207031	0.19370337
0.014648438	0.24938962
0.017089844	0.3203839
0.01953125	0.41096523
0.021972656	0.52369124
0.024414062	0.65959185
0.026855469	0.8187933
0.029296875	1.001206
0.03173828	1.2066408
0.034179688	1.4339774
0.036621094	1.6800565
0.0390625	1.9395496
0.041503906	2.205263
0.043945312	2.4682975
0.04638672	2.7184782
0.048828125	2.9460719
0.05126953	3.14438
0.053710938	3.3118992
0.056152344	3.4526272
0.05859375	3.5744538
0.061035156	3.686662
0.06347656	3.7980528
0.06591797	3.916339
0.068359375	4.048372
0.07080078	4.2001734
0.07324219	4.375706
0.075683594	4.574292
0.078125	4.78861
0.080566406	5.005947
0.08300781	5.2132163
0.08544922	5.402624
0.087890625	5.574265
0.09033203	5.735079
0.09277344	5.8964033
0.095214844	6.0725203
0.09765625	6.2801757
0.10009766	6.5365367
0.10253906	6.853258
0.10498047	7.2283425
0.10742188	7.6423707
0.10986328	8.06397
0.11230469	8.461732
0.11474609	8.81326
0.1171875	9.104393
0.11962891	9.322291
0.12207031	9.453986
0.12451172	9.4961195
0.12695312	9.466555
0.12939453	9.402381
0.13183594	9.342566
0.13427734	9.312661
0.13671875	9.3289175
0.13916016	9.414725
0.14160156	9.607044
0.14404297	9.941417
0.14648438	10.426608
0.14892578	11.027441
0.15136719	11.667891
0.1538086	12.254301
0.15625	12.7068
0.1586914	12.979394
0.16113281	13.056382
0.16357422	12.934052
0.16601562	12.615577
0.16845703	12.136848
0.17089844	11.608845
0.17333984	11.24066
0.17578125	11.30724
0.17822266	12.043322
0.18066406	13.519014
0.18310547	15.616192
0.18554688	18.115978
0.18798828	20.797085
0.19042969	23.485155
0.1928711	26.049
0.1953125	28.368643
0.1977539	30.316847
0.20019531	31.780045
0.20263672	32.701244
0.20507812	33.102577
0.20751953	33.06407
0.20996094	32.675995
0.21240234	32.007557
0.21484375	31.120068
0.21728516	30.10786
0.21972656	29.118757
0.22216797	28.31957
0.22460938	27.826218
0.22705078	27.658258
0.22949219	27.756548
0.2319336	28.03594
0.234375	28.41503
0.2368164	28.80205
0.23925781	29.070536
0.24169922	29.076263
0.24414062	28.727919
0.24658203	28.06318
0.24902344	27.26442
0.25146484	26.596933
0.25390625	26.316727
0.25634766	26.599215
0.25878906	27.495712
0.26123047	28.914618
0.26367188	30.640451
0.26611328	32.374264
0.2685547	33.76882
0.2709961	34.481686
0.2734375	34.276806
0.2758789	33.136154
0.2783203	31.303192
0.28076172	29.228758
0.28320312	27.460304
0.28564453	26.50527
0.28808594	26.65584
0.29052734	27.857077
0.29296875	29.785452
0.29541016	32.060886
0.29785156	34.349796
0.30029297	36.33203
0.30273438	37.689903
0.30517578	38.188366
0.3076172	37.752014
0.3100586	36.44483
0.3125	34.40424
0.3149414	31.859823
0.3173828	29.250114
0.31982422	27.263948
0.32226562	26.587667
0.32470703	27.420115
0.32714844	29.274233
0.32958984	31.296032
0.33203125	32.66846
0.33447266	32.838573
0.33691406	31.59828
0.33935547	29.027845
0.34179688	25.33643
0.34423828	20.73957
0.3466797	15.517292
0.3491211	10.327229
0.3515625	7.195463
0.3540039	9.094173
0.3564453	13.706521
0.35888672	18.47996
0.36132812	22.50437
0.36376953	25.323624
0.36621094	26.750496
0.36865234	26.845242
0.37109375	25.790169
0.37353516	23.763252
0.37597656	20.97291
0.37841797	17.827244
0.38085938	15.080355
0.38330078	13.75113
0.3857422	14.404401
0.3881836	16.390835
0.390625	18.504564
0.3930664	19.884783
0.3955078	20.311728
0.39794922	20.25979
0.40039062	20.731186
0.40283203	22.597385
0.40527344	25.724836
0.40771484	28.99061
0.41015625	31.06941
0.41259766	31.02395
0.41503906	28.464142
0.41748047	23.46098
0.41992188	16.472792
0.42236328	8.450204
0.4248047	3.2366967
0.4272461	8.957225
0.4296875	14.997168
0.4321289	19.667192
0.4345703	22.94848
0.43701172	24.890324
0.43945312	25.589298
0.44189453	25.263634
0.44433594	24.12329
0.44677734	22.166962
0.44921875	19.251352
0.45166016	15.702771
0.45410156	13.547215
0.45654297	15.978942
0.45898438	22.141022
0.46142578	28.970835
0.4638672	34.467052
0.4663086	37.356728
0.46875	36.86365
0.4711914	32.862247
0.4736328	25.947289
0.47607422	17.210955
0.47851562	8.09298
0.48095703	4.4026175
0.48339844	10.900438
0.48583984	16.547401
0.48828125	19.832018
0.49072266	20.73278
0.49316406	19.675573
0.49560547	17.305262
0.49804688	14.4121
0.5004883	11.812599
0.5029297	10.001853
0.5053711	8.819115
0.5078125	7.7247186
0.5102539	6.689946
0.5126953	6.9495206
0.5151367	9.376003
0.5175781	12.671066
0.52001953	15.226441
0.52246094	15.786421
0.52490234	13.50085
0.52734375	8.309817
0.52978516	3.1851103
0.53222656	9.637212
0.53466797	17.775513
0.5371094	24.173798
0.5395508	27.821644
0.5419922	28.634361
0.5444336	27.495422
0.546875	25.907257
0.5493164	25.250847
0.5517578	25.931864
0.5541992	26.991045
0.5566406	26.801258
0.55908203	24.188368
0.56152344	18.972528
0.56396484	11.936401
0.56640625	5.2720213
0.56884766	6.1543617
0.57128906	10.28703
0.57373047	11.780476
0.5761719	10.199469
0.5786133	6.799525
0.5810547	5.540951
0.5834961	9.100267
0.5859375	13.162585
0.5883789	15.820475
0.5908203	16.830217
0.5932617	16.58726
0.5957031	15.598043
0.59814453	14.161734
0.60058594	12.37917
0.60302734	10.336747
0.60546875	8.153824
0.60791016	5.874798
0.61035156	3.5462015
0.61279297	1.5957319
0.6152344	1.8799913
0.6176758	3.8046582
0.6201172	6.2321424
0.6225586	8.957232
0.625	11.640677
0.6274414	13.950788
0.6298828	15.663722
0.6323242	16.763145
0.6347656	17.567953
0.63720703	18.760885
0.63964844	21.168404
0.64208984	25.25086
0.64453125	30.706068
0.64697266	36.665432
0.64941406	42.276154
0.65185547	47.105663
0.6542969	51.081997
0.6567383	54.22202
0.6591797	56.498363
0.6616211	57.80871
0.6640625	57.980576
0.6665039	56.88711
0.6689453	54.598656
0.6713867	51.49808
0.6738281	48.25384
0.67626953	45.330868
0.67871094	42.384396
0.68115234	38.503773
0.68359375	33.062572
0.68603516	26.347307
0.68847656	20.175173
0.69091797	18.304111
0.6933594	22.467356
0.6958008	29.647663
0.6982422	37.4639
0.7006836	44.97782
0.703125	51.61236
0.7055664	56.784336
0.7080078	60.094448
0.7104492	61.636093
0.7128906	61.950287
0.71533203	61.693295
0.71777344	61.33777
0.72021484	60.96061
0.72265625	60.23661
0.72509766	58.757286
0.72753906	56.339714
0.72998047	53.060364
0.7324219	49.153675
0.7348633	44.897137
0.7373047	40.521057
0.7397461	36.211243
0.7421875	32.15518
0.7446289	28.554152
0.7470703	25.645988
0.7495117	23.669596
0.7519531	22.603039
0.75439453	21.929491
0.75683594	20.876183
0.75927734	18.876762
0.76171875	15.771081
0.76416016	11.691709
0.76660156	6.8787026
0.76904297	2.5113206
0.7714844	6.2136106
0.7739258	12.626854
0.7763672	18.886152
0.7788086	24.163736
0.78125	27.891218
0.7836914	29.851688
0.7861328	30.14953
0.7885742	29.00083
0.7910156	26.572989
0.79345703	23.08682
0.79589844	19.046272
0.79833984	15.226241
0.80078125	12.225745
0.80322266	9.967438
0.80566406	8.034709
0.80810547	6.840217
0.8105469	8.034815
0.8129883	11.841559
0.8154297	16.952381
0.8178711	22.364468
0.8203125	27.376398
0.8227539	31.582691
0.8251953	34.98845
0.8276367	37.857166
0.8300781	40.262974
0.83251953	41.85595
0.83496094	42.18287
0.83740234	41.12705
0.83984375	38.898823
0.84228516	35.662605
0.84472656	31.396402
0.84716797	26.232761
0.8496094	20.79393
0.8520508	15.999054
0.8544922	12.476925
0.8569336	10.43266
0.859375	10.29764
0.8618164	12.487489
0.8642578	16.610378
0.8666992	22.071964
0.8691406	28.230345
0.87158203	34.134663
0.87402344	38.768623
0.87646484	41.62442
0.87890625	43.13027
0.88134766	44.575035
0.88378906	47.3364
0.88623047	51.851677
0.8886719	57.412613
0.8911133	62.83053
0.8935547	67.003395
0.8959961	69.06768
0.8984375	68.40034
0.9008789	64.66298
0.9033203	57.915867
0.9057617	48.763798
0.9082031	38.389732
0.91064453	28.244148
0.91308594	19.382807
0.91552734	11.945882
0.91796875	5.418858
0.92041016	1.4532536
0.92285156	7.56094
0.92529297	14.918584
0.9277344	23.770077
0.9301758	34.01523
0.9326172	44.866978
0.9350586	55.302807
0.9375	64.52369
0.9399414	72.11503
0.9423828	77.92278
0.9448242	81.896324
0.9472656	84.09333
0.94970703	84.71444
0.95214844	83.9657
0.95458984	81.89366
0.95703125	78.450325
0.95947266	73.65672
0.96191406	67.552795
0.96435547	60.02799
0.9667969	50.88849
0.9692383	40.147823
0.9716797	28.176104
0.9741211	15.5849
0.9765625	3.3498762
0.9790039	9.405215
0.9814453	20.077414
0.9838867	28.795956
0.9863281	34.850666
0.98876953	37.861687
0.99121094	37.857494
0.99365234	35.24669
0.99609375	30.860985
0.99853516	26.32232
1.0009766	24.210066
1.003418	26.060474
1.0058594	30.236835
1.0083008	34.40911
1.0107422	37.50556
1.0131836	39.257298
1.015625	39.51221
1.0180664	38.17845
1.0205078	35.521744
1.0229492	32.191044
1.0253906	28.758469
1.027832	25.26297
1.0302734	21.448057
1.0327148	17.553486
1.0351562	14.931799
1.0375977	15.457192
1.0400391	19.056875
1.0424805	23.990137
1.0449219	28.963726
1.0473633	33.33655
1.0498047	36.79475
1.0522461	39.142765
1.0546875	40.26856
1.0571289	40.25349
1.0595703	39.45472
1.0620117	38.398502
1.0644531	37.527664
1.0668945	37.026478
1.0693359	36.892807
1.0717773	37.219868
1.0742188	38.448483
1.0766602	41.237274
1.0791016	45.875774
1.081543	51.969913
1.0839844	58.89192
1.0864258	66.218864
1.0888672	73.44171
1.0913086	79.44008
1.09375	82.65591
1.0961914	81.9487
1.0986328	77.27518
1.1010742	69.60187
1.1035156	60.216465
1.105957	50.16929
1.1083984	40.568657
1.1108398	33.67826
1.1132812	32.840168
1.1157227	38.304314
1.1181641	46.29796
1.1206055	53.46267
1.1230469	58.01987
1.1254883	59.157925
1.1279297	56.59278
1.1303711	50.502182
1.1328125	41.781963
1.1352539	32.56482
1.1376953	26.955933
1.1401367	29.118088
1.1425781	37.06981
1.1450195	45.98968
1.1474609	52.813843
1.1499023	56.058132
1.1523438	55.539593
1.1547852	52.196075
1.1572266	47.633587
1.159668	43.62537
1.1621094	41.772373
1.1645508	42.809975
1.1669922	45.670204
1.1694336	47.938324
1.171875	47.40488
1.1743164	43.04611
1.1767578	35.106438
1.1791992	24.712524
1.1816406	13.807272
1.184082	9.529449
1.1865234	18.663717
1.1889648	30.24918
1.1914062	40.430897
1.1938477	47.743122
1.1962891	51.7003
1.1987305	52.81221
1.2011719	52.10752
1.2036133	50.358154
1.2060547	47.80124
1.2084961	44.552414
1.2109375	40.9037
1.2133789	37.050495
1.2158203	32.89277
1.2182617	28.435846
1.2207031	24.302542
1.2231445	21.779705
1.2255859	22.216707
1.2280273	25.887209
1.2304688	31.806866
1.2329102	38.659378
1.2353516	45.325474
1.237793	51.008484
1.2402344	55.290833
1.2426758	58.171745
1.2451172	59.966393
1.2475586	61.002205
1.25	61.359272
1.2524414	60.99897
1.2548828	60.12616
1.2573242	59.238598
1.2597656	58.713543
1.262207	58.48866
1.2646484	58.280357
1.2670898	57.957806
1.2695312	57.591606
1.2719727	57.36922
1.2744141	57.643238
1.2768555	58.830116
1.2792969	60.975044
1.2817383	63.533672
1.2841797	65.68786
1.2866211	66.72651
1.2890625	66.185074
1.2915039	63.94159
1.2939453	60.337677
1.2963867	56.08263
1.2988281	51.859245
1.3012695	48.039764
1.3037109	44.83776
1.3061523	42.452824
1.3085938	40.728104
1.3110352	38.91903
1.3134766	36.30557
1.315918	33.17913
1.3183594	31.27678
1.3208008	32.766502
1.3232422	38.001907
1.3256836	45.404854
1.328125	53.249634
1.3305664	60.349186
1.3330078	65.91998
1.3354492	69.40035
1.3378906	70.38846
1.340332	68.713646
1.3427734	64.58702
1.3452148	58.68785
1.3476562	52.072746
1.3500977	45.92978
1.3525391	41.316612
1.3549805	38.961094
1.3574219	39.047215
1.3598633	41.0592
1.3623047	43.975613
1.3647461	46.694492
1.3671875	48.297485
1.3696289	48.098362
1.3720703	45.66936
1.3745117	40.950348
1.3769531	34.355106
1.3793945	26.736399
1.3818359	19.255213
1.3842773	13.467681
1.3867188	11.435409
1.3891602	13.15104
1.3916016	15.797648
1.394043	17.641531
1.3964844	18.403734
1.3989258	18.641508
1.4013672	19.197563
1.4038086	20.472588
1.40625	22.0858
1.4086914	23.266474
1.4111328	23.255095
1.4135742	21.376467
1.4160156	17.15191
1.418457	10.641846
1.4208984	3.3127885
1.4233398	7.3341713
1.4257812	15.358855
1.4282227	22.52268
1.4306641	28.500727
1.4331055	32.850742
1.4355469	34.86199
1.4379883	34.39433
1.4404297	33.016697
1.4428711	34.14768
1.4453125	40.176018
1.4477539	49.80281
1.4501953	60.386745
1.4526367	70.14685
1.4550781	78.273766
1.4575195	84.49643
1.4599609	88.72065
1.4624023	90.90387
1.4648438	91.16045
1.4672852	89.88836
1.4697266	87.680466
1.472168	85.04196
1.4746094	82.20296
1.4770508	79.18206
1.4794922	75.92769
1.4819336	72.34046
1.484375	68.259384
1.4868164	63.549545
1.4892578	58.227844
1.4916992	52.49497
1.4941406	46.661606
1.496582	41.04728
1.4990234	35.899834
1.5014648	31.340296
1.5039062	27.353529
1.5063477	23.860662
1.5087891	20.893236
1.5112305	18.851463
1.5136719	18.583097
1.5161133	20.622555
1.5185547	24.227705
1.5209961	27.920753
1.5234375	30.523968
1.5258789	31.598915
1.5283203	31.345785
1.5307617	30.135553
1.5332031	28.114267
1.5356445	25.403904
1.5380859	22.783674
1.5405273	21.942709
1.5429688	24.029238
1.5454102	28.043127
1.5478516	32.13998
1.550293	35.151352
1.5527344	36.730453
1.5551758	37.01241
1.5576172	36.25208
1.5600586	34.621574
1.5625	32.240532
1.5649414	29.32683
1.5673828	26.264578
1.5698242	23.48756
1.5722656	21.28143
1.574707	19.708315
1.5771484	18.637224
1.5795898	17.6762
1.5820312	16.16226
1.5844727	13.569563
1.5869141	10.442669
1.5893555	9.99222
1.5917969	14.870128
1.5942383	22.416388
1.5966797	30.639414
1.5991211	38.98441
1.6015625	47.388844
1.6040039	55.67627
1.6064453	63.300484
1.6088867	69.53065
1.6113281	73.838135
1.6137695	76.13083
1.6162109	76.67213
1.6186523	75.79896
1.6210938	73.69447
1.6235352	70.394325
1.6259766	65.99868
1.628418	60.89089
1.6308594	55.721626
1.6333008	51.07188
1.6357422	47.07449
1.6381836	43.453934
1.640625	39.964447
1.6430664	36.655693
1.6455078	33.698956
1.6479492	31.119438
1.6503906	28.835857
1.652832	26.915731
1.6552734	25.6684
1.6577148	25.41532
1.6601562	26.146227
1.6625977	27.462896
1.6650391	28.898811
1.6674805	30.287155
1.6699219	31.872974
1.6723633	34.027504
1.6748047	36.73971
1.6772461	39.40369
1.6796875	41.128765
1.6821289	41.211773
1.6845703	39.428627
1.6870117	36.062477
1.6894531	31.70029
1.6918945	26.903374
1.6943359	22.021587
1.6967773	17.49818
1.6992188	14.611635
1.7016602	15.038164
1.7041016	17.966055
1.706543	20.900436
1.7089844	22.3263
1.7114258	21.978811
1.7138672	20.427475
1.7163086	18.547647
1.71875	16.988688
1.7211914	15.932583
1.7236328	15.237394
1.7260742	14.615097
1.7285156	13.714896
1.730957	12.303999
1.7333984	10.468038
1.7358398	8.564299
1.7382812	6.9130845
1.7407227	5.5396366
1.7431641	4.2998466
1.7456055	3.4258575
1.7480469	4.533446
1.7504883	8.482002
1.7529297	14.382786
1.7553711	21.329262
1.7578125	28.305534
1.7602539	34.34776
1.7626953	38.84335
1.7651367	41.655636
1.7675781	42.9514
1.7700195	42.882828
1.7724609	41.487114
1.7749023	38.966038
1.7773438	36.02742
1.7797852	33.78341
1.7822266	33.02464
1.784668	33.576107
1.7871094	34.693672
1.7895508	35.933155
1.7919922	37.40316
1.7944336	39.38931
1.796875	41.962093
1.7993164	45.01345
1.8017578	48.513718
1.8041992	52.558094
1.8066406	57.153057
1.809082	61.997383
1.8115234	66.41429
1.8139648	69.46582
1.8164062	70.27408
1.8188477	68.46268
1.8212891	64.472694
1.8237305	59.492622
1.8261719	54.94327
1.8286133	51.81179
1.8310547	50.420822
1.8334961	50.787876
1.8359375	52.846996
1.8383789	56.108513
1.8408203	59.440025
1.8432617	61.508495
1.8457031	61.453514
1.8481445	59.213085
1.8505859	55.37001
1.8530273	50.719646
1.8554688	45.89244
1.8579102	41.250095
1.8603516	36.992657
1.862793	33.24837
1.8652344	30.059526
1.8676758	27.375275
1.8701172	25.102238
1.8725586	23.106655
1.875	21.139658
1.8774414	18.862368
1.8798828	16.055521
1.8823242	12.829386
1.8847656	9.628621
1.887207	7.0238338
1.8896484	5.4459853
1.8920898	5.0996184
1.8945312	6.0030756
1.8969727	7.8598094
1.8994141	10.150672
1.9018555	12.356448
1.9042969	14.068281
1.9067383	15.091627
1.9091797	15.545418
1.9116211	15.812613
1.9140625	16.202044
1.9165039	16.55024
1.9189453	16.260132
1.9213867	14.732838
1.9238281	11.718576
1.9262695	7.4403706
1.9287109	3.0989704
1.9311523	5.148886
1.9335938	10.53725
1.9360352	15.801118
1.9384766	20.492838
1.940918	24.543383
1.9433594	28.123564
1.9458008	31.509417
1.9482422	34.826786
1.9506836	37.91995
1.953125	40.530968
1.9555664	42.592438
1.9580078	44.278217
1.9604492	45.731853
1.9628906	46.790527
1.965332	47.048466
1.9677734	46.165
1.9702148	44.056355
1.9726562	40.833817
1.9750977	36.679173
1.9775391	31.905077
1.9799805	27.175234
1.9824219	23.525957
1.9848633	21.710463
1.9873047	21.293861
1.9897461	21.08136
1.9921875	20.380444
1.9946289	19.382637
1.9970703	18.60476
1.9995117	18.077791
2.0019531	17.208038
2.0043945	15.448739
2.006836	12.98034
2.0092773	11.100636
2.0117188	11.692847
2.0141602	14.684541
2.0166016	18.339785
2.019043	21.479555
2.0214844	23.745844
2.0239258	25.40956
2.0263672	27.131834
2.0288086	29.508636
2.03125	32.625942
2.0336914	36.079678
2.0361328	39.36688
2.0385742	42.17386
2.0410156	44.39052
2.043457	46.0005
2.0458984	47.049404
2.0483398	47.7114
2.0507812	48.26632
2.0532227	48.870716
2.055664	49.34965
2.0581055	49.363796
2.0605469	48.88067
2.0629883	48.405273
2.0654297	48.539295
2.067871	49.20419
2.0703125	49.532284
2.072754	48.649345
2.0751953	46.40976
2.0776367	43.38037
2.0800781	40.1699
2.0825195	36.801434
2.084961	32.831017
2.0874023	28.01024
2.0898438	22.68408
2.0922852	17.604704
2.0947266	13.423307
2.097168	10.370621
2.0996094	8.536926
2.1020508	8.2130785
2.1044922	9.204647
2.1069336	10.600133
2.109375	11.816673
2.1118164	13.125593
2.1142578	15.278291
2.1166992	18.451931
2.1191406	21.829386
2.121582	24.305344
2.1240234	25.260355
2.1264648	24.941912
2.1289062	24.33434
2.1313477	24.34344
2.133789	24.872719
2.1362305	25.097
2.1386719	24.597626
2.1411133	23.918835
2.1435547	24.01122
2.145996	25.032639
2.1484375	26.077581
2.150879	26.155031
2.1533203	24.924503
2.1557617	22.66384
2.1582031	19.863344
2.1606445	16.874899
2.163086	13.853288
2.1655273	10.892572
2.1679688	8.079347
2.1704102	5.4169693
2.1728516	2.8189948
2.175293	0.22905055
2.1777344	2.318401
2.1801758	4.768926
2.1826172	7.10866
2.1850586	9.297929
2.1875	11.199891
2.1899414	12.654081
2.1923828	13.629043
2.1948242	14.251618
2.1972656	14.652598
2.199707	14.826112
2.2021484	14.716665
2.2045898	14.427356
2.2070312	14.250589
2.2094727	14.410541
2.211914	14.812921
2.2143555	15.158588
2.2167969	15.265821
2.2192383	15.23551
2.2216797	15.350473
2.224121	15.799816
2.2265625	16.485008
2.229004	17.13873
2.2314453	17.631615
2.2338867	18.158112
2.2363281	19.078138
2.2387695	20.468626
2.241211	21.899887
2.2436523	22.751799
2.2460938	22.676819
2.2485352	21.78468
2.2509766	20.471645
2.253418	19.062428
2.2558594	17.619486
2.2583008	16.10427
2.2607422	14.59076
2.2631836	13.229014
2.265625	12.166903
2.2680664	11.766057
2.2705078	12.637949
2.2729492	14.824374
2.2753906	17.448647
2.277832	19.561451
2.2802734	20.828012
2.2827148	21.61072
2.2851562	22.49466
2.2875977	23.587948
2.290039	24.43657
2.2924805	24.693024
2.2949219	24.674877
2.2973633	25.130701
2.2998047	26.338232
2.302246	27.707306
2.3046875	28.501076
2.307129	28.607853
2.3095703	28.509298
2.3120117	28.601082
2.3144531	28.693192
2.3168945	28.352398
2.319336	27.560465
2.3217773	26.836199
2.3242188	26.676327
2.3266602	26.970673
2.3291016	27.154865
2.331543	26.815407
2.3339844	25.986582
2.3364258	24.9708
2.3388672	23.959108
2.3413086	22.846495
2.34375	21.433985
2.3461914	19.771719
2.3486328	18.255806
2.3510742	17.315784
2.3535156	16.97345
2.355957	16.866909
2.3583984	16.709202
2.3608398	16.54288
2.3632812	16.582111
2.3657227	16.911728
2.368164	17.35556
2.3706055	17.5904
2.3730469	17.34283
2.3754883	16.5313
2.3779297	15.315804
2.380371	14.029037
2.3828125	12.986457
2.385254	12.283977
2.3876953	11.774881
2.3901367	11.237889
2.3925781	10.521981
2.3950195	9.565452
2.397461	8.360233
2.3999023	6.9520016
2.4023438	5.4956756
2.4047852	4.3314133
2.4072266	3.8704355
2.409668	4.031932
2.4121094	4.216248
2.4145508	3.9880352
2.4169922	3.2543569
2.4194336	2.1675642
2.421875	1.0642095
2.4243164	0.7132611
2.4267578	1.0838386
2.4291992	1.0838274
2.4316406	0.52381325
2.434082	0.581116
2.4365234	1.9252301
2.4389648	3.309643
2.4414062	4.5118856
2.4438477	5.517939
2.446289	6.613005
2.4487305	8.17723
2.4511719	10.230397
2.4536133	12.351957
