
X-Axis: Frequency (hz)
Y-Axis: Fourier Amplitude (cm/s)
Number of Data Sets: 4


DATASET #1

Name: FAS H1 (cm/s)
Num Points: 2044
Info: 

X, Y Data:
0.009765625	1.5971371
0.012207031	1.9769274
0.014648438	2.3389401
0.017089844	2.675483
0.01953125	2.9789822
0.021972656	3.2446492
0.024414062	3.4731748
0.026855469	3.6713395
0.029296875	3.8490489
0.03173828	4.0141225
0.034179688	4.168243
0.036621094	4.3068976
0.0390625	4.422886
0.041503906	4.5107017
0.043945312	4.5699253
0.04638672	4.60722
0.048828125	4.636615
0.05126953	4.6771626
0.053710938	4.747769
0.056152344	4.8610096
0.05859375	5.019477
0.061035156	5.215806
0.06347656	5.435231
0.06591797	5.6589866
0.068359375	5.8677945
0.07080078	6.044527
0.07324219	6.174842
0.075683594	6.245275
0.078125	6.241255
0.080566406	6.1475797
0.08300781	5.9521856
0.08544922	5.6506166
0.087890625	5.2481923
0.09033203	4.758722
0.09277344	4.2012835
0.095214844	3.5979497
0.09765625	2.9738872
0.10009766	2.3587003
0.10253906	1.7869735
0.10498047	1.2975769
0.10742188	0.9335162
0.10986328	0.73427427
0.11230469	0.69292206
0.11474609	0.73706496
0.1171875	0.80840737
0.11962891	0.9027333
0.12207031	1.0485446
0.12451172	1.274361
0.12695312	1.5894635
0.12939453	1.9887044
0.13183594	2.463821
0.13427734	3.0062885
0.13671875	3.60336
0.13916016	4.2339754
0.14160156	4.868127
0.14404297	5.4692755
0.14648438	5.997746
0.14892578	6.413919
0.15136719	6.681873
0.1538086	6.7749333
0.15625	6.683517
0.1586914	6.4225492
0.16113281	6.033494
0.16357422	5.575295
0.16601562	5.104012
0.16845703	4.649796
0.17089844	4.2061806
0.17333984	3.7381313
0.17578125	3.199078
0.17822266	2.5464246
0.18066406	1.7674538
0.18310547	1.0256782
0.18554688	1.281113
0.18798828	2.5565495
0.19042969	4.1791553
0.1928711	6.025877
0.1953125	8.0805
0.1977539	10.329855
0.20019531	12.717801
0.20263672	15.127755
0.20507812	17.39867
0.20751953	19.361609
0.20996094	20.874784
0.21240234	21.842653
0.21484375	22.218666
0.21728516	22.003912
0.21972656	21.252499
0.22216797	20.08214
0.22460938	18.671425
0.22705078	17.222403
0.22949219	15.888805
0.2319336	14.714481
0.234375	13.644751
0.2368164	12.616842
0.23925781	11.657007
0.24169922	10.904661
0.24414062	10.533908
0.24658203	10.613978
0.24902344	11.034774
0.25146484	11.571982
0.25390625	12.00032
0.25634766	12.159126
0.25878906	11.968245
0.26123047	11.418345
0.26367188	10.54958
0.26611328	9.428124
0.2685547	8.129044
0.2709961	6.7274227
0.2734375	5.295968
0.2758789	3.908491
0.2783203	2.6517756
0.28076172	1.6564089
0.28320312	1.1945372
0.28564453	1.493835
0.28808594	2.221239
0.29052734	3.0983055
0.29296875	3.9265301
0.29541016	4.488451
0.29785156	4.6398034
0.30029297	4.4497313
0.30273438	4.3175893
0.30517578	4.8136396
0.3076172	6.049174
0.3100586	7.623441
0.3125	9.119669
0.3149414	10.261414
0.3173828	10.917304
0.31982422	11.129084
0.32226562	11.114218
0.32470703	11.133119
0.32714844	11.237028
0.32958984	11.170049
0.33203125	10.581815
0.33447266	9.314448
0.33691406	7.5597157
0.33935547	5.948697
0.34179688	5.5507483
0.34423828	6.836337
0.3466797	9.02819
0.3491211	11.417041
0.3515625	13.67533
0.3540039	15.709568
0.3564453	17.601414
0.35888672	19.507246
0.36132812	21.49263
0.36376953	23.440529
0.36621094	25.125048
0.36865234	26.360638
0.37109375	27.08739
0.37353516	27.350096
0.37597656	27.221695
0.37841797	26.7453
0.38085938	25.928484
0.38330078	24.76545
0.3857422	23.240856
0.3881836	21.298134
0.390625	18.80536
0.3930664	15.578598
0.3955078	11.49078
0.39794922	6.6856384
0.40039062	3.0809135
0.40283203	6.9242525
0.40527344	12.740901
0.40771484	18.208923
0.41015625	22.71507
0.41259766	25.901003
0.41503906	27.736244
0.41748047	28.73906
0.41992188	30.01204
0.42236328	32.667812
0.4248047	36.882347
0.4272461	41.770992
0.4296875	46.166912
0.4321289	49.260124
0.4345703	50.757713
0.43701172	50.76884
0.43945312	49.616886
0.44189453	47.68318
0.44433594	45.293415
0.44677734	42.62345
0.44921875	39.648483
0.45166016	36.20089
0.45410156	32.147957
0.45654297	27.614965
0.45898438	23.174768
0.46142578	19.904354
0.4638672	18.891895
0.4663086	20.013552
0.46875	21.847033
0.4711914	23.003181
0.4736328	22.823923
0.47607422	21.485943
0.47851562	20.028154
0.48095703	20.06394
0.48339844	22.543186
0.48583984	26.807121
0.48828125	31.528822
0.49072266	35.689445
0.49316406	38.7997
0.49560547	40.91371
0.49804688	42.541286
0.5004883	44.311302
0.5029297	46.46265
0.5053711	48.613136
0.5078125	50.062916
0.5102539	50.290802
0.5126953	49.21667
0.5151367	47.146496
0.5175781	44.547215
0.52001953	41.817993
0.52246094	39.137875
0.52490234	36.410885
0.52734375	33.344193
0.52978516	29.657417
0.53222656	25.30314
0.53466797	20.54576
0.5371094	15.857461
0.5395508	11.715594
0.5419922	8.428015
0.5444336	6.063826
0.546875	4.4906607
0.5493164	3.4994524
0.5517578	2.9783137
0.5541992	2.962616
0.5566406	3.445723
0.55908203	4.295628
0.56152344	5.354295
0.56396484	6.4224577
0.56640625	7.2280087
0.56884766	7.4785814
0.57128906	6.9455085
0.57373047	5.5351086
0.5761719	3.4622607
0.5786133	2.815065
0.5810547	6.1910424
0.5834961	11.102268
0.5859375	16.667938
0.5883789	22.538328
0.5908203	28.46857
0.5932617	34.307938
0.5957031	39.981236
0.59814453	45.42177
0.60058594	50.498753
0.60302734	54.991142
0.60546875	58.60637
0.60791016	61.020393
0.61035156	61.936058
0.61279297	61.169754
0.6152344	58.735683
0.6176758	54.864445
0.6201172	49.91836
0.6225586	44.25063
0.625	38.114887
0.6274414	31.719187
0.6298828	25.452015
0.6323242	20.298983
0.6347656	18.23748
0.63720703	20.84404
0.63964844	26.992283
0.64208984	34.776756
0.64453125	43.072647
0.64697266	51.307236
0.64941406	59.135323
0.65185547	66.175575
0.6542969	71.82155
0.6567383	75.28399
0.6591797	75.87081
0.6616211	73.26529
0.6640625	67.55112
0.6665039	58.99092
0.6689453	47.84347
0.6713867	34.51524
0.6738281	20.232616
0.67626953	10.832881
0.67871094	18.660889
0.68115234	31.268942
0.68359375	42.541203
0.68603516	51.676033
0.68847656	58.533882
0.69091797	62.91687
0.6933594	64.65769
0.6958008	64.00718
0.6982422	61.782337
0.7006836	59.03741
0.703125	56.532764
0.7055664	54.503105
0.7080078	52.81893
0.7104492	51.15953
0.7128906	49.050987
0.71533203	46.007732
0.71777344	41.83163
0.72021484	36.81186
0.72265625	31.663172
0.72509766	27.311857
0.72753906	24.715246
0.72998047	24.691141
0.7324219	27.636877
0.7348633	33.435165
0.7373047	41.69237
0.7397461	51.88963
0.7421875	63.377537
0.7446289	75.3738
0.7470703	86.98928
0.7495117	97.28214
0.7519531	105.38199
0.75439453	110.67939
0.75683594	112.9794
0.75927734	112.4966
0.76171875	109.68621
0.76416016	105.04897
0.76660156	99.04398
0.76904297	92.09213
0.7714844	84.55763
0.7739258	76.68769
0.7763672	68.607155
0.7788086	60.396446
0.78125	52.141933
0.7836914	43.91091
0.7861328	35.77946
0.7885742	27.996271
0.7910156	21.12237
0.79345703	15.914685
0.79589844	12.925698
0.79833984	12.078771
0.80078125	12.686787
0.80322266	13.86445
0.80566406	14.909248
0.80810547	15.557734
0.8105469	15.872077
0.8129883	15.746799
0.8154297	14.697558
0.8178711	12.367837
0.8203125	9.501135
0.8227539	9.209402
0.8251953	13.510209
0.8276367	19.722498
0.8300781	25.740118
0.83251953	30.416344
0.83496094	33.018623
0.83740234	33.24294
0.83984375	31.306963
0.84228516	27.87803
0.84472656	23.85215
0.84716797	20.166094
0.8496094	17.742912
0.8520508	17.470152
0.8544922	20.110035
0.8569336	26.05428
0.859375	35.016724
0.8618164	46.09671
0.8642578	58.173946
0.8666992	70.22143
0.8691406	81.29538
0.87158203	90.34711
0.87402344	96.259514
0.87646484	98.27538
0.87890625	96.50983
0.88134766	92.075325
0.88378906	86.637566
0.88623047	81.685104
0.8886719	77.99051
0.8911133	75.43509
0.8935547	73.0644
0.8959961	69.444374
0.8984375	63.375515
0.9008789	54.546303
0.9033203	43.614513
0.9057617	31.704699
0.9082031	19.938995
0.91064453	10.561789
0.91308594	11.734925
0.91552734	20.35564
0.91796875	28.47113
0.92041016	34.128693
0.92285156	36.752693
0.92529297	36.273754
0.9277344	32.962143
0.9301758	27.640709
0.9326172	22.361624
0.9350586	21.208029
0.9375	26.929956
0.9399414	36.93765
0.9423828	48.095997
0.9448242	58.653465
0.9472656	67.85796
0.94970703	75.67131
0.95214844	82.28169
0.95458984	87.58813
0.95703125	91.15877
0.95947266	92.613815
0.96191406	91.86198
0.96435547	88.94832
0.9667969	83.879585
0.9692383	76.78734
0.9716797	68.21742
0.9741211	59.076836
0.9765625	50.18992
0.9790039	41.96685
0.9814453	34.55569
0.9838867	28.128187
0.9863281	22.821058
0.98876953	18.646847
0.99121094	15.878998
0.99365234	15.087389
0.99609375	15.883116
0.99853516	16.775423
1.0009766	16.70075
1.003418	15.608978
1.0058594	14.191744
1.0083008	13.685548
1.0107422	15.507344
1.0131836	19.788675
1.015625	25.138617
1.0180664	30.017942
1.0205078	33.484913
1.0229492	35.29353
1.0253906	35.64043
1.027832	34.829315
1.0302734	33.161247
1.0327148	31.043497
1.0351562	28.983526
1.0375977	27.331127
1.0400391	26.12183
1.0424805	25.321012
1.0449219	25.146112
1.0473633	26.016327
1.0498047	28.177267
1.0522461	31.409946
1.0546875	35.091476
1.0571289	38.5275
1.0595703	41.324326
1.0620117	43.5538
1.0644531	45.570217
1.0668945	47.662235
1.0693359	49.94111
1.0717773	52.511673
1.0742188	55.511364
1.0766602	58.869286
1.0791016	62.20397
1.081543	65.148926
1.0839844	67.743484
1.0864258	70.36264
1.0888672	73.18593
1.0913086	75.79043
1.09375	77.33069
1.0961914	77.07262
1.0986328	74.77072
1.1010742	70.688446
1.1035156	65.368904
1.105957	59.3564
1.1083984	53.048862
1.1108398	46.76445
1.1132812	40.939823
1.1157227	36.261303
1.1181641	33.494812
1.1206055	32.929615
1.1230469	33.943825
1.1254883	35.40188
1.1279297	36.517754
1.1303711	37.37226
1.1328125	38.67274
1.1352539	40.770195
1.1376953	42.958298
1.1401367	44.05415
1.1425781	43.527405
1.1450195	41.986153
1.1474609	40.57056
1.1499023	39.654324
1.1523438	38.33113
1.1547852	35.47654
1.1572266	31.127764
1.159668	26.989433
1.1621094	25.308687
1.1645508	26.06669
1.1669922	26.920017
1.1694336	26.37626
1.171875	25.139715
1.1743164	25.047867
1.1767578	26.534128
1.1791992	27.96509
1.1816406	27.897217
1.184082	26.60271
1.1865234	25.706762
1.1889648	26.24956
1.1914062	27.246374
1.1938477	27.103628
1.1962891	25.618801
1.1987305	24.633905
1.2011719	26.786251
1.2036133	32.50857
1.2060547	40.120552
1.2084961	48.256622
1.2109375	56.42082
1.2133789	64.448875
1.2158203	72.02243
1.2182617	78.58256
1.2207031	83.61709
1.2231445	87.09989
1.2255859	89.74371
1.2280273	92.68531
1.2304688	96.56956
1.2329102	100.80624
1.2353516	103.86136
1.237793	104.2693
1.2402344	101.39198
1.2426758	95.49747
1.2451172	87.39712
1.2475586	78.11647
1.25	68.879234
1.2524414	61.15713
1.2548828	56.127567
1.2573242	53.514812
1.2597656	51.361275
1.262207	47.451862
1.2646484	40.714844
1.2670898	31.529242
1.2695312	21.25465
1.2719727	11.583841
1.2744141	4.779551
1.2768555	5.47632
1.2792969	7.9765015
1.2817383	8.899716
1.2841797	10.909101
1.2866211	17.379608
1.2890625	27.12724
1.2915039	37.576733
1.2939453	46.80471
1.2963867	53.796616
1.2988281	58.38303
1.3012695	60.812637
1.3037109	61.2274
1.3061523	59.57918
1.3085938	56.152576
1.3110352	52.104034
1.3134766	49.058674
1.315918	47.574963
1.3183594	46.334652
1.3208008	43.52605
1.3232422	38.55225
1.3256836	32.413696
1.328125	26.935553
1.3305664	23.297977
1.3330078	20.963768
1.3354492	18.590822
1.3378906	15.623528
1.340332	12.657484
1.3427734	10.885177
1.3452148	11.059894
1.3476562	13.102011
1.3500977	16.965439
1.3525391	22.581919
1.3549805	29.364363
1.3574219	36.41085
1.3598633	42.966152
1.3623047	48.721867
1.3647461	53.828022
1.3671875	58.634743
1.3696289	63.410583
1.3720703	68.33943
1.3745117	73.75595
1.3769531	80.163315
1.3793945	87.718155
1.3818359	95.629906
1.3842773	102.27211
1.3867188	106.0484
1.3891602	106.27152
1.3916016	103.38062
1.394043	98.36341
1.3964844	91.88408
1.3989258	83.93923
1.4013672	74.30451
1.4038086	63.13787
1.40625	51.061142
1.4086914	38.746967
1.4111328	26.596176
1.4135742	15.198494
1.4160156	8.903641
1.418457	15.288613
1.4208984	24.756483
1.4233398	33.05362
1.4257812	39.62879
1.4282227	44.711937
1.4306641	48.54494
1.4331055	51.071163
1.4355469	52.130306
1.4379883	51.831352
1.4404297	50.64283
1.4428711	49.08343
1.4453125	47.33151
1.4477539	45.223946
1.4501953	42.73222
1.4526367	40.460537
1.4550781	39.51021
1.4575195	40.44955
1.4599609	42.502266
1.4624023	44.290554
1.4648438	45.175026
1.4672852	45.743267
1.4697266	47.109867
1.472168	49.645073
1.4746094	52.60928
1.4770508	55.035553
1.4794922	56.467464
1.4819336	56.790596
1.484375	55.703854
1.4868164	52.66527
1.4892578	47.498505
1.4916992	41.176952
1.4941406	36.193794
1.496582	35.39253
1.4990234	38.85357
1.5014648	43.74484
1.5039062	47.414074
1.5063477	48.548992
1.5087891	46.87622
1.5112305	42.725235
1.5136719	36.705868
1.5161133	29.528692
1.5185547	22.00582
1.5209961	15.194177
1.5234375	10.475877
1.5258789	8.868013
1.5283203	9.717835
1.5307617	12.389595
1.5332031	16.847721
1.5356445	22.242804
1.5380859	27.43459
1.5405273	31.944157
1.5429688	36.039204
1.5454102	39.914993
1.5478516	42.904594
1.550293	43.887047
1.5527344	42.66344
1.5551758	41.127193
1.5576172	42.544464
1.5600586	47.962254
1.5625	54.846245
1.5649414	60.359386
1.5673828	63.591846
1.5698242	65.3169
1.5722656	66.52222
1.574707	67.0788
1.5771484	65.84669
1.5795898	61.924637
1.5820312	55.734673
1.5844727	49.292366
1.5869141	45.358128
1.5893555	45.18129
1.5917969	47.093834
1.5942383	48.443733
1.5966797	47.84779
1.5991211	45.72331
1.6015625	43.79821
1.6040039	43.833984
1.6064453	46.098495
1.6088867	49.361816
1.6113281	52.328526
1.6137695	54.522076
1.6162109	56.109566
1.6186523	57.23851
1.6210938	57.567974
1.6235352	56.395107
1.6259766	53.189327
1.628418	48.086258
1.6308594	42.110348
1.6333008	37.08399
1.6357422	34.983826
1.6381836	36.574745
1.640625	40.881542
1.6430664	46.477016
1.6455078	52.49068
1.6479492	58.647114
1.6503906	65.01892
1.652832	71.74693
1.6552734	78.76726
1.6577148	85.73133
1.6601562	92.2961
1.6625977	98.62587
1.6650391	105.58604
1.6674805	114.15234
1.6699219	124.31172
1.6723633	134.5467
1.6748047	142.51617
1.6772461	146.30795
1.6796875	145.38899
1.6821289	140.79863
1.6845703	134.51616
1.6870117	128.36078
1.6894531	123.28449
1.6918945	119.67619
1.6943359	117.9931
1.6967773	118.48054
1.6992188	120.27448
1.7016602	121.54125
1.7041016	120.94158
1.706543	118.78696
1.7089844	116.54382
1.7114258	115.0573
1.7138672	113.53854
1.7163086	110.65257
1.71875	106.1747
1.7211914	101.07674
1.7236328	95.98562
1.7260742	89.99215
1.7285156	81.42633
1.730957	69.55796
1.7333984	55.35017
1.7358398	40.900703
1.7382812	28.303299
1.7407227	18.784714
1.7431641	12.595961
1.7456055	9.287916
1.7480469	7.9511085
1.7504883	8.687642
1.7529297	12.719341
1.7553711	19.359777
1.7578125	26.921995
1.7602539	34.103672
1.7626953	40.23225
1.7651367	45.22705
1.7675781	49.489304
1.7700195	53.7941
1.7724609	58.928772
1.7749023	64.95654
1.7773438	70.79778
1.7797852	74.811295
1.7822266	75.948845
1.784668	74.63901
1.7871094	72.78571
1.7895508	72.53385
1.7919922	74.42843
1.7944336	77.031136
1.796875	78.510025
1.7993164	78.19767
1.8017578	76.92015
1.8041992	76.19608
1.8066406	76.84957
1.809082	78.190346
1.8115234	78.61588
1.8139648	76.901924
1.8164062	73.02835
1.8188477	68.17033
1.8212891	63.935917
1.8237305	61.35968
1.8261719	60.730995
1.8286133	62.491196
1.8310547	67.513374
1.8334961	75.74989
1.8359375	85.2791
1.8383789	93.31052
1.8408203	97.724976
1.8432617	97.767334
1.8457031	93.798805
1.8481445	86.59352
1.8505859	76.849846
1.8530273	65.27715
1.8554688	52.940712
1.8579102	41.22766
1.8603516	31.241734
1.862793	23.211878
1.8652344	16.8333
1.8676758	12.387151
1.8701172	11.207605
1.8725586	13.908787
1.875	19.357496
1.8774414	26.028282
1.8798828	32.02749
1.8823242	35.474564
1.8847656	35.398724
1.887207	32.291195
1.8896484	27.824171
1.8920898	23.640312
1.8945312	20.165178
1.8969727	17.388678
1.8994141	16.828165
1.9018555	19.854223
1.9042969	24.415054
1.9067383	27.787886
1.9091797	28.921295
1.9116211	28.402504
1.9140625	27.60608
1.9165039	27.435608
1.9189453	27.676111
1.9213867	27.604643
1.9238281	26.786663
1.9262695	25.250837
1.9287109	23.348719
1.9311523	21.595545
1.9335938	20.493587
1.9360352	20.2927
1.9384766	20.790644
1.940918	21.3642
1.9433594	21.397825
1.9458008	21.146925
1.9482422	22.504793
1.9506836	27.53452
1.953125	35.491722
1.9555664	43.784687
1.9580078	50.258553
1.9604492	54.038048
1.9628906	55.554714
1.965332	55.959427
1.9677734	56.112324
1.9702148	55.929485
1.9726562	54.759853
1.9750977	52.315693
1.9775391	49.189785
1.9799805	46.547504
1.9824219	45.252132
1.9848633	45.299248
1.9873047	46.193478
1.9897461	47.605423
1.9921875	49.479393
1.9946289	51.805485
1.9970703	54.511364
1.9995117	57.446663
2.0019531	60.287983
2.0043945	62.561375
2.006836	63.952164
2.0092773	64.60489
2.0117188	64.959236
2.0141602	65.16035
2.0166016	64.72441
2.019043	62.937172
2.0214844	59.53127
2.0239258	54.915215
2.0263672	49.83795
2.0288086	44.96154
2.03125	40.83163
2.0336914	38.063942
2.0361328	37.07045
2.0385742	37.442875
2.0410156	38.107086
2.043457	38.22705
2.0458984	37.732456
2.0483398	37.08652
2.0507812	36.68365
2.0532227	36.534676
2.055664	36.595695
2.0581055	37.27211
2.0605469	39.269054
2.0629883	42.674767
2.0654297	46.456615
2.067871	49.156666
2.0703125	49.927616
2.072754	49.04036
2.0751953	47.614773
2.0776367	46.66417
2.0800781	46.19714
2.0825195	45.41295
2.084961	43.69184
2.0874023	41.163193
2.0898438	38.393433
2.0922852	35.62385
2.0947266	32.404053
2.097168	28.060728
2.0996094	22.426397
2.1020508	16.236166
2.1044922	11.55909
2.1069336	12.030262
2.109375	17.42184
2.1118164	24.411158
2.1142578	31.108965
2.1166992	36.385307
2.1191406	39.75448
2.121582	41.470196
2.1240234	42.0867
2.1264648	41.693176
2.1289062	39.760002
2.1313477	35.914635
2.133789	30.816835
2.1362305	26.195112
2.1386719	23.491465
2.1411133	22.12275
2.1435547	20.346018
2.145996	17.476246
2.1484375	14.369005
2.150879	12.357594
2.1533203	11.705608
2.1557617	11.908585
2.1582031	13.161665
2.1606445	15.45837
2.163086	17.51395
2.1655273	17.91942
2.1679688	16.568474
2.1704102	15.321197
2.1728516	16.490246
2.175293	19.189728
2.1777344	20.794836
2.1801758	20.174656
2.1826172	18.14186
2.1850586	16.444857
2.1875	15.74433
2.1899414	15.046442
2.1923828	13.947277
2.1948242	13.89754
2.1972656	15.983745
2.199707	18.674564
2.2021484	20.025082
2.2045898	19.3754
2.2070312	17.230028
2.2094727	14.56542
2.211914	12.142262
2.2143555	10.418146
2.2167969	9.8747835
2.2192383	10.457178
2.2216797	11.056658
2.224121	10.571671
2.2265625	8.80693
2.229004	6.67242
2.2314453	5.7884026
2.2338867	6.335939
2.2363281	6.8602796
2.2387695	7.0235167
2.241211	7.7434754
2.2436523	9.659727
2.2460938	12.253572
2.2485352	14.803231
2.2509766	16.948284
2.253418	18.651585
2.2558594	20.112478
2.2583008	21.6916
2.2607422	23.735203
2.2631836	26.325928
2.265625	29.216057
2.2680664	32.058018
2.2705078	34.71687
2.2729492	37.384094
2.2753906	40.33791
2.277832	43.49431
2.2802734	46.216408
2.2827148	47.65522
2.2851562	47.359657
2.2875977	45.705376
2.290039	43.795197
2.2924805	42.665337
2.2949219	42.31299
2.2973633	41.742237
2.2998047	40.071365
2.302246	37.462906
2.3046875	35.144463
2.307129	34.374027
2.3095703	35.0573
2.3120117	35.842888
2.3144531	35.541378
2.3168945	34.002537
2.319336	32.007755
2.3217773	30.541523
2.3242188	29.955051
2.3266602	29.803368
2.3291016	29.419432
2.331543	28.36919
2.3339844	26.457342
2.3364258	23.612093
2.3388672	19.898676
2.3413086	15.619998
2.34375	11.365056
2.3461914	7.95796
2.3486328	6.203853
2.3510742	6.053286
2.3535156	6.5474324
2.355957	7.097901
2.3583984	7.54066
2.3608398	7.7390957
2.3632812	7.544062
2.3657227	6.911332
2.368164	5.9406843
2.3706055	4.8150425
2.3730469	3.720087
2.3754883	2.7882962
2.3779297	2.046392
2.380371	1.3895944
2.3828125	0.66259295
2.385254	0.32698533
2.3876953	1.5885408
2.3901367	3.3563082
2.3925781	5.639582
2.3950195	8.258772
2.397461	10.886094
2.3999023	13.23363
2.4023438	15.247417
2.4047852	17.148396
2.4072266	19.223053
2.409668	21.518919
2.4121094	23.789875
2.4145508	25.75258
2.4169922	27.35518
2.4194336	28.788666
2.421875	30.21448
2.4243164	31.469389
2.4267578	32.08098
2.4291992	31.585138
2.4316406	29.846073
2.434082	27.157953
2.4365234	24.098812
2.4389648	21.215328
2.4414062	18.739412
2.4438477	16.574844
2.446289	14.555821
2.4487305	12.692993
2.4511719	11.266517
2.4536133	10.781498
2.4560547	11.593222
