
X-Axis: Frequency (hz)
Y-Axis: Fourier Amplitude (cm/s)
Number of Data Sets: 4


DATASET #1

Name: FAS H1 (cm/s)
Num Points: 2044
Info: 

X, Y Data:
0.009765625	0.07460998
0.012207031	0.12421115
0.014648438	0.19364905
0.017089844	0.2851805
0.01953125	0.402436
0.021972656	0.5499975
0.024414062	0.7315137
0.026855469	0.9507205
0.029296875	1.2140766
0.03173828	1.5303757
0.034179688	1.9086767
0.036621094	2.3575597
0.0390625	2.8830252
0.041503906	3.4842339
0.043945312	4.1531672
0.04638672	4.8783903
0.048828125	5.645006
0.05126953	6.4299192
0.053710938	7.203311
0.056152344	7.939825
0.05859375	8.626216
0.061035156	9.255819
0.06347656	9.8209505
0.06591797	10.31807
0.068359375	10.758093
0.07080078	11.162291
0.07324219	11.546214
0.075683594	11.913461
0.078125	12.265609
0.080566406	12.608608
0.08300781	12.944391
0.08544922	13.263844
0.087890625	13.556406
0.09033203	13.824365
0.09277344	14.083517
0.095214844	14.352594
0.09765625	14.64642
0.10009766	14.977308
0.10253906	15.357278
0.10498047	15.796293
0.10742188	16.298962
0.10986328	16.860935
0.11230469	17.465229
0.11474609	18.084766
0.1171875	18.694204
0.11962891	19.281464
0.12207031	19.846233
0.12451172	20.38802
0.12695312	20.899754
0.12939453	21.374125
0.13183594	21.811289
0.13427734	22.21523
0.13671875	22.58254
0.13916016	22.896976
0.14160156	23.132378
0.14404297	23.255188
0.14648438	23.223282
0.14892578	22.988949
0.15136719	22.511919
0.1538086	21.774145
0.15625	20.781311
0.1586914	19.549835
0.16113281	18.095028
0.16357422	16.434032
0.16601562	14.597609
0.16845703	12.633922
0.17089844	10.599087
0.17333984	8.546579
0.17578125	6.5290594
0.17822266	4.610558
0.18066406	2.878617
0.18310547	1.4778179
0.18554688	0.8864119
0.18798828	1.3869209
0.19042969	2.0314462
0.1928711	2.6599798
0.1953125	3.407045
0.1977539	4.3835154
0.20019531	5.5785484
0.20263672	6.872065
0.20507812	8.08596
0.20751953	9.030362
0.20996094	9.547343
0.21240234	9.55445
0.21484375	9.078707
0.21728516	8.272703
0.21972656	7.413856
0.22216797	6.8724484
0.22460938	6.965866
0.22705078	7.717358
0.22949219	8.861427
0.2319336	10.090113
0.234375	11.191483
0.2368164	12.057131
0.23925781	12.651162
0.24169922	12.976435
0.24414062	13.049351
0.24658203	12.888729
0.24902344	12.521122
0.25146484	11.999784
0.25390625	11.427234
0.25634766	10.96416
0.25878906	10.799414
0.26123047	11.063843
0.26367188	11.727017
0.26611328	12.566963
0.2685547	13.233527
0.2709961	13.344911
0.2734375	12.58204
0.2758789	10.780841
0.2783203	8.038691
0.28076172	5.0102105
0.28320312	4.275438
0.28564453	7.2840686
0.28808594	11.015991
0.29052734	14.17147
0.29296875	16.251354
0.29541016	17.046946
0.29785156	16.619282
0.30029297	15.345326
0.30273438	13.9148
0.30517578	13.110804
0.3076172	13.267087
0.3100586	13.972309
0.3125	14.536415
0.3149414	14.491398
0.3173828	13.694158
0.31982422	12.253996
0.32226562	10.438578
0.32470703	8.586055
0.32714844	7.059743
0.32958984	6.293656
0.33203125	6.663378
0.33447266	7.9509
0.33691406	9.418025
0.33935547	10.379288
0.34179688	10.513909
0.34423828	10.075039
0.3466797	9.976623
0.3491211	11.13665
0.3515625	13.273664
0.3540039	15.236798
0.3564453	16.03776
0.35888672	15.272947
0.36132812	13.321963
0.36376953	11.543411
0.36621094	11.747726
0.36865234	13.942755
0.37109375	16.433294
0.37353516	18.035913
0.37597656	18.548908
0.37841797	18.513088
0.38085938	18.752523
0.38330078	19.624733
0.3857422	20.57752
0.3881836	20.563807
0.390625	18.723433
0.3930664	14.813698
0.3955078	9.578471
0.39794922	6.322075
0.40039062	9.549363
0.40283203	14.18274
0.40527344	16.848145
0.40771484	16.615
0.41015625	13.60606
0.41259766	9.054956
0.41503906	6.748375
0.41748047	10.185205
0.41992188	14.75486
0.42236328	17.82904
0.4248047	18.914158
0.4272461	18.409266
0.4296875	17.092646
0.4321289	15.577477
0.4345703	14.010157
0.43701172	12.384709
0.43945312	11.083801
0.44189453	10.704482
0.44433594	11.035335
0.44677734	11.025618
0.44921875	9.926282
0.45166016	7.8669972
0.45410156	5.6933727
0.45654297	4.113365
0.45898438	2.605575
0.46142578	0.80375725
0.4638672	3.4808168
0.4663086	6.766671
0.46875	8.8019905
0.4711914	8.662564
0.4736328	6.202603
0.47607422	2.3806138
0.47851562	3.371582
0.48095703	6.9700413
0.48339844	9.076115
0.48583984	9.9026575
0.48828125	10.760283
0.49072266	12.179606
0.49316406	12.895708
0.49560547	11.482287
0.49804688	7.750652
0.5004883	3.934436
0.5029297	6.1485906
0.5053711	9.569245
0.5078125	10.261923
0.5102539	7.4551945
0.5126953	1.5570397
0.5151367	6.4215784
0.5175781	14.811114
0.52001953	22.076845
0.52246094	26.798601
0.52490234	28.101458
0.52734375	26.344831
0.52978516	23.998251
0.53222656	24.666124
0.53466797	28.15552
0.5371094	30.46447
0.5395508	28.768002
0.5419922	22.903234
0.5444336	14.862126
0.546875	8.351106
0.5493164	7.5768433
0.5517578	8.78418
0.5541992	8.259117
0.5566406	7.991182
0.55908203	11.018291
0.56152344	15.352946
0.56396484	18.290789
0.56640625	18.653763
0.56884766	16.643847
0.57128906	13.875989
0.57373047	12.362506
0.5761719	11.734087
0.5786133	10.025688
0.5810547	7.7618017
0.5834961	9.062675
0.5859375	13.503984
0.5883789	17.483343
0.5908203	19.829283
0.5932617	20.887098
0.5957031	21.358955
0.59814453	21.289871
0.60058594	20.073881
0.60302734	17.356462
0.60546875	13.479486
0.60791016	9.118136
0.61035156	4.8999796
0.61279297	2.206203
0.6152344	4.076917
0.6176758	7.0783987
0.6201172	10.183972
0.6225586	13.382593
0.625	16.604115
0.6274414	19.77447
0.6298828	22.781612
0.6323242	25.53877
0.6347656	28.066763
0.63720703	30.356949
0.63964844	32.2581
0.64208984	33.54122
0.64453125	33.941574
0.64697266	33.257683
0.64941406	31.625383
0.65185547	29.603725
0.6542969	27.79244
0.6567383	26.337513
0.6591797	24.89954
0.6616211	23.1226
0.6640625	21.085144
0.6665039	19.262756
0.6689453	18.051483
0.6713867	17.422354
0.6738281	17.036768
0.67626953	16.507727
0.67871094	15.621248
0.68115234	14.558922
0.68359375	13.871385
0.68603516	13.919628
0.68847656	14.423162
0.69091797	14.883645
0.6933594	15.070843
0.6958008	14.962581
0.6982422	14.553142
0.7006836	13.909659
0.703125	13.429323
0.7055664	13.846471
0.7080078	15.606569
0.7104492	18.36148
0.7128906	21.382572
0.71533203	24.11733
0.71777344	26.378958
0.72021484	28.244232
0.72265625	29.767168
0.72509766	30.7301
0.72753906	30.727766
0.72998047	29.495214
0.7324219	27.013752
0.7348633	23.283655
0.7373047	18.23077
0.7397461	12.140865
0.7421875	7.1521473
0.7446289	9.023628
0.7470703	14.69637
0.7495117	19.929081
0.7519531	24.12625
0.75439453	27.446125
0.75683594	29.950106
0.75927734	31.578207
0.76171875	32.414474
0.76416016	32.772808
0.76660156	33.038025
0.76904297	33.514915
0.7714844	34.422985
0.7739258	35.867634
0.7763672	37.70606
0.7788086	39.489292
0.78125	40.57862
0.7836914	40.343967
0.7861328	38.36347
0.7885742	34.60512
0.7910156	29.556639
0.79345703	24.255114
0.79589844	20.153198
0.79833984	18.520174
0.80078125	19.376974
0.80322266	21.697672
0.80566406	24.641638
0.80810547	27.715633
0.8105469	30.392115
0.8129883	32.044052
0.8154297	32.177135
0.8178711	30.634007
0.8203125	27.603636
0.8227539	23.495987
0.8251953	18.809965
0.8276367	14.073894
0.8300781	9.859961
0.83251953	6.73454
0.83496094	4.979423
0.83740234	4.7049713
0.83984375	6.560357
0.84228516	10.392985
0.84472656	15.136805
0.84716797	19.747192
0.8496094	23.463354
0.8520508	25.96059
0.8544922	27.427242
0.8569336	28.502085
0.859375	29.96002
0.8618164	32.214565
0.8642578	35.09737
0.8666992	38.132107
0.8691406	40.875046
0.87158203	42.986336
0.87402344	44.14814
0.87646484	44.05869
0.87890625	42.53461
0.88134766	39.564713
0.88378906	35.232025
0.88623047	29.611395
0.8886719	22.794449
0.8911133	15.108969
0.8935547	8.051663
0.8959961	8.488228
0.8984375	15.769503
0.9008789	23.165365
0.9033203	28.88862
0.9057617	32.314995
0.9082031	33.62748
0.91064453	33.910736
0.91308594	34.797455
0.91552734	37.399204
0.91796875	41.49522
0.92041016	46.08512
0.92285156	50.32367
0.92529297	53.752205
0.9277344	56.050037
0.9301758	56.862217
0.9326172	55.955517
0.9350586	53.52997
0.9375	50.34762
0.9399414	47.487606
0.9423828	45.866657
0.9448242	45.904922
0.9472656	47.47997
0.94970703	49.920906
0.95214844	52.047672
0.95458984	52.522472
0.95703125	50.37009
0.95947266	45.288235
0.96191406	37.596584
0.96435547	27.974716
0.9667969	17.253416
0.9692383	6.3714027
0.9716797	3.7652988
0.9741211	12.191038
0.9765625	18.73088
0.9790039	23.811989
0.9814453	28.291813
0.9838867	32.76826
0.9863281	37.219322
0.98876953	41.213715
0.99121094	44.19566
0.99365234	45.595448
0.99609375	44.98786
0.99853516	42.360626
1.0009766	38.211704
1.003418	33.216286
1.0058594	27.662954
1.0083008	21.295568
1.0107422	13.808629
1.0131836	5.380448
1.015625	3.3305109
1.0180664	11.53786
1.0205078	18.747463
1.0229492	24.787884
1.0253906	29.693415
1.027832	33.583157
1.0302734	36.603336
1.0327148	38.79263
1.0351562	39.923008
1.0375977	39.61707
1.0400391	37.81754
1.0424805	35.26221
1.0449219	33.46691
1.0473633	33.875015
1.0498047	36.78738
1.0522461	41.465122
1.0546875	46.93432
1.0571289	52.25676
1.0595703	56.52839
1.0620117	58.98333
1.0644531	59.05876
1.0668945	56.333286
1.0693359	50.526062
1.0717773	41.701168
1.0742188	30.523577
1.0766602	18.362814
1.0791016	8.024927
1.081543	9.208891
1.0839844	16.578758
1.0864258	22.099596
1.0888672	24.777874
1.0913086	24.632942
1.09375	22.11806
1.0961914	17.83573
1.0986328	12.22181
1.1010742	5.4745884
1.1035156	2.2851539
1.105957	10.47452
1.1083984	18.655449
1.1108398	26.36573
1.1132812	33.398556
1.1157227	39.65488
1.1181641	44.99558
1.1206055	49.222527
1.1230469	52.097786
1.1254883	53.288383
1.1279297	52.355564
1.1303711	48.970413
1.1328125	43.329468
1.1352539	36.51112
1.1376953	30.495993
1.1401367	27.442608
1.1425781	28.024733
1.1450195	30.981665
1.1474609	34.79152
1.1499023	38.488506
1.1523438	41.648438
1.1547852	44.586872
1.1572266	48.312714
1.159668	53.67203
1.1621094	60.441483
1.1645508	67.510895
1.1669922	73.67072
1.1694336	78.003395
1.171875	79.83524
1.1743164	78.67656
1.1767578	74.33698
1.1791992	67.077446
1.1816406	57.623985
1.184082	47.012527
1.1865234	36.342854
1.1889648	26.51944
1.1914062	18.094687
1.1938477	11.424898
1.1962891	7.368011
1.1987305	7.0814652
1.2011719	8.493319
1.2036133	9.113915
1.2060547	8.34762
1.2084961	6.6463714
1.2109375	5.366763
1.2133789	6.4687757
1.2158203	9.7108
1.2182617	13.756111
1.2207031	17.821045
1.2231445	21.376345
1.2255859	24.076677
1.2280273	25.81382
1.2304688	26.72771
1.2329102	27.159039
1.2353516	27.551567
1.237793	28.303276
1.2402344	29.611465
1.2426758	31.412155
1.2451172	33.426125
1.2475586	35.234562
1.25	36.38552
1.2524414	36.566956
1.2548828	35.755665
1.2573242	34.20531
1.2597656	32.304024
1.262207	30.483114
1.2646484	29.17636
1.2670898	28.59677
1.2695312	28.408552
1.2719727	27.803432
1.2744141	25.960323
1.2768555	22.333672
1.2792969	16.635107
1.2817383	8.784571
1.2841797	1.4393988
1.2866211	12.619123
1.2890625	24.91326
1.2915039	37.240494
1.2939453	48.70021
1.2963867	58.427208
1.2988281	65.71695
1.3012695	70.16872
1.3037109	71.73824
1.3061523	70.69513
1.3085938	67.58497
1.3110352	63.24063
1.3134766	58.73449
1.315918	55.158367
1.3183594	53.274334
1.3208008	53.24648
1.3232422	54.651577
1.3256836	56.761402
1.328125	58.870056
1.3305664	60.444054
1.3330078	61.09049
1.3354492	60.52819
1.3378906	58.682636
1.340332	55.784683
1.3427734	52.29092
1.3452148	48.649998
1.3476562	45.12976
1.3500977	41.82345
1.3525391	38.70425
1.3549805	35.611633
1.3574219	32.26601
1.3598633	28.409615
1.3623047	23.991007
1.3647461	19.253521
1.3671875	14.699948
1.3696289	10.980553
1.3720703	8.735633
1.3745117	8.413394
1.3769531	10.10561
1.3793945	13.488333
1.3818359	17.92916
1.3842773	22.744326
1.3867188	27.46627
1.3891602	31.913002
1.3916016	36.015213
1.394043	39.62815
1.3964844	42.567947
1.3989258	44.763664
1.4013672	46.245075
1.4038086	46.948513
1.40625	46.622536
1.4086914	45.00697
1.4111328	42.09057
1.4135742	38.177135
1.4160156	33.753586
1.418457	29.405825
1.4208984	26.006634
1.4233398	24.86524
1.4257812	26.845636
1.4282227	31.18109
1.4306641	36.26366
1.4331055	40.897236
1.4355469	44.503883
1.4379883	46.823757
1.4404297	47.65818
1.4428711	46.864502
1.4453125	44.50843
1.4477539	40.940796
1.4501953	36.69898
1.4526367	32.314857
1.4550781	28.175953
1.4575195	24.513836
1.4599609	21.491957
1.4624023	19.299053
1.4648438	18.114492
1.4672852	17.908749
1.4697266	18.311163
1.472168	18.783241
1.4746094	18.91227
1.4770508	18.541155
1.4794922	17.716934
1.4819336	16.572182
1.484375	15.253014
1.4868164	13.92377
1.4892578	12.820001
1.4916992	12.270725
1.4941406	12.545942
1.496582	13.55421
1.4990234	14.807711
1.5014648	15.709333
1.5039062	15.788877
1.5063477	14.847364
1.5087891	13.168255
1.5112305	11.824393
1.5136719	12.3694
1.5161133	14.951194
1.5185547	18.126833
1.5209961	20.686815
1.5234375	22.275835
1.5258789	23.32511
1.5283203	24.674536
1.5307617	26.90191
1.5332031	30.006487
1.5356445	33.80129
1.5380859	38.21778
1.5405273	43.047276
1.5429688	47.68827
1.5454102	51.390694
1.5478516	53.67884
1.550293	54.448433
1.5527344	53.697147
1.5551758	51.26525
1.5576172	46.91147
1.5600586	40.64683
1.5625	33.046703
1.5649414	25.412863
1.5673828	19.748632
1.5698242	17.831438
1.5722656	19.0169
1.574707	21.153353
1.5771484	23.171867
1.5795898	25.073761
1.5820312	27.24339
1.5844727	30.135847
1.5869141	34.10292
1.5893555	39.163864
1.5917969	44.89333
1.5942383	50.555466
1.5966797	55.362328
1.5991211	58.741318
1.6015625	60.548557
1.6040039	61.140144
1.6064453	61.245506
1.6088867	61.678196
1.6113281	62.996857
1.6137695	65.25685
1.6162109	67.994064
1.6186523	70.447296
1.6210938	71.83339
1.6235352	71.5222
1.6259766	69.14713
1.628418	64.75659
1.6308594	59.002518
1.6333008	53.229332
1.6357422	49.249443
1.6381836	48.53631
1.640625	51.16281
1.6430664	55.798893
1.6455078	60.772327
1.6479492	64.81356
1.6503906	67.173256
1.652832	67.498695
1.6552734	65.72312
1.6577148	62.03974
1.6601562	56.9096
1.6625977	51.011787
1.6650391	45.043312
1.6674805	39.4172
1.6699219	34.10177
1.6723633	28.891502
1.6748047	24.054317
1.6772461	20.801052
1.6796875	20.44545
1.6821289	22.341503
1.6845703	24.451307
1.6870117	25.475056
1.6894531	25.268465
1.6918945	24.240316
1.6943359	22.58123
1.6967773	19.931726
1.6992188	15.762346
1.7016602	10.035192
1.7041016	4.510616
1.706543	7.6017876
1.7089844	14.572071
1.7114258	20.949572
1.7138672	26.13057
1.7163086	30.098598
1.71875	32.936497
1.7211914	34.585438
1.7236328	34.832897
1.7260742	33.475273
1.7285156	30.50159
1.730957	26.184576
1.7333984	21.099714
1.7358398	16.247787
1.7382812	13.491669
1.7407227	14.923879
1.7431641	19.810863
1.7456055	26.004972
1.7480469	32.131874
1.7504883	37.350716
1.7529297	41.098434
1.7553711	43.074566
1.7578125	43.278164
1.7602539	42.00026
1.7626953	39.74463
1.7651367	37.104214
1.7675781	34.63231
1.7700195	32.728954
1.7724609	31.555883
1.7749023	31.038996
1.7773438	30.989267
1.7797852	31.225689
1.7822266	31.57208
1.784668	31.772747
1.7871094	31.4997
1.7895508	30.507942
1.7919922	28.840513
1.7944336	26.938255
1.796875	25.580975
1.7993164	25.6077
1.8017578	27.480446
1.8041992	31.040184
1.8066406	35.672424
1.809082	40.610535
1.8115234	45.177082
1.8139648	48.95358
1.8164062	51.830338
1.8188477	53.889954
1.8212891	55.211765
1.8237305	55.77639
1.8261719	55.547714
1.8286133	54.61301
1.8310547	53.191704
1.8334961	51.469833
1.8359375	49.418743
1.8383789	46.80958
1.8408203	43.45614
1.8432617	39.48995
1.8457031	35.450474
1.8481445	32.052727
1.8505859	29.705788
1.8530273	28.213593
1.8554688	27.067085
1.8579102	25.97839
1.8603516	25.018467
1.862793	24.306517
1.8652344	23.71527
1.8676758	23.013687
1.8701172	22.280865
1.8725586	22.037977
1.875	22.78708
1.8774414	24.456053
1.8798828	26.605886
1.8823242	29.014921
1.8847656	31.70848
1.887207	34.486748
1.8896484	36.704372
1.8920898	37.643715
1.8945312	37.07021
1.8969727	35.46972
1.8994141	33.758713
1.9018555	32.58529
1.9042969	31.83938
1.9067383	30.943317
1.9091797	29.498425
1.9116211	27.55376
1.9140625	25.418716
1.9165039	23.344193
1.9189453	21.371178
1.9213867	19.422352
1.9238281	17.465233
1.9262695	15.572474
1.9287109	13.861158
1.9311523	12.403612
1.9335938	11.206365
1.9360352	10.282383
1.9384766	9.738758
1.940918	9.758569
1.9433594	10.441331
1.9458008	11.683486
1.9482422	13.249819
1.9506836	14.904883
1.953125	16.466724
1.9555664	17.790335
1.9580078	18.728422
1.9604492	19.113565
1.9628906	18.794823
1.965332	17.72975
1.9677734	16.079233
1.9702148	14.224748
1.9726562	12.622414
1.9750977	11.525556
1.9775391	10.832126
1.9799805	10.288844
1.9824219	9.776741
1.9848633	9.365641
1.9873047	9.171118
1.9897461	9.179292
1.9921875	9.214201
1.9946289	9.149465
1.9970703	9.2505045
1.9995117	10.21102
2.0019531	12.405571
2.0043945	15.374532
2.006836	18.424217
2.0092773	21.196518
2.0117188	23.727533
2.0141602	26.185617
2.0166016	28.576956
2.019043	30.713404
2.0214844	32.432095
2.0239258	33.774014
2.0263672	34.9242
2.0288086	35.99726
2.03125	36.94741
2.0336914	37.736324
2.0361328	38.53999
2.0385742	39.682007
2.0410156	41.285904
2.043457	43.048294
2.0458984	44.440804
2.0483398	45.100792
2.0507812	44.987324
2.0532227	44.194378
2.055664	42.681797
2.0581055	40.2483
2.0605469	36.783264
2.0629883	32.514843
2.0654297	27.980606
2.067871	23.710253
2.0703125	19.888071
2.072754	16.36059
2.0751953	12.988781
2.0776367	9.918652
2.0800781	7.4725795
2.0825195	5.75802
2.084961	4.4769435
2.0874023	3.3275738
2.0898438	2.4348497
2.0922852	2.1494684
2.0947266	2.2764387
2.097168	2.4322999
2.0996094	2.791485
2.1020508	3.6714125
2.1044922	4.9416237
2.1069336	6.282664
2.109375	7.5416603
2.1118164	8.834081
2.1142578	10.439399
2.1166992	12.478649
2.1191406	14.687345
2.121582	16.560766
2.1240234	17.677616
2.1264648	17.939314
2.1289062	17.607859
2.1313477	17.096403
2.133789	16.610182
2.1362305	15.973214
2.1386719	14.843734
2.1411133	13.0599
2.1435547	10.802709
2.145996	8.537861
2.1484375	6.7765875
2.150879	5.703974
2.1533203	5.1380258
2.1557617	5.2014303
2.1582031	6.461505
2.1606445	8.852469
2.163086	11.700564
2.1655273	14.433946
2.1679688	16.786526
2.1704102	18.785948
2.1728516	20.651527
2.175293	22.611576
2.1777344	24.692627
2.1801758	26.616844
2.1826172	27.918196
2.1850586	28.236544
2.1875	27.622643
2.1899414	26.645742
2.1923828	26.094881
2.1948242	26.336327
2.1972656	26.999521
2.199707	27.44276
2.2021484	27.364748
2.2045898	26.96191
2.2070312	26.67742
2.2094727	26.849579
2.211914	27.568617
2.2143555	28.805548
2.2167969	30.565908
2.2192383	32.85168
2.2216797	35.495018
2.224121	38.077354
2.2265625	40.042603
2.229004	40.93265
2.2314453	40.5948
2.2338867	39.244038
2.2363281	37.333843
2.2387695	35.29078
2.241211	33.296608
2.2436523	31.32019
2.2460938	29.370073
2.2485352	27.680098
2.2509766	26.57655
2.253418	26.106773
2.2558594	25.875624
2.2583008	25.349712
2.2607422	24.270088
2.2631836	22.773987
2.265625	21.187855
2.2680664	19.71343
2.2705078	18.346672
2.2729492	17.157915
2.2753906	16.611181
2.277832	17.404669
2.2802734	19.768105
2.2827148	23.196047
2.2851562	26.95308
2.2875977	30.484444
2.290039	33.48551
2.2924805	35.83085
2.2949219	37.469444
2.2973633	38.34724
2.2998047	38.414894
2.302246	37.722015
2.3046875	36.51046
2.307129	35.1893
2.3095703	34.152607
2.3120117	33.562164
2.3144531	33.30721
2.3168945	33.17383
2.319336	33.019478
2.3217773	32.796635
2.3242188	32.47454
2.3266602	31.994965
2.3291016	31.329185
2.331543	30.558565
2.3339844	29.85659
2.3364258	29.334347
2.3388672	28.886074
2.3413086	28.2317
2.34375	27.157238
2.3461914	25.726662
2.3486328	24.255245
2.3510742	23.03129
2.3535156	22.033854
2.355957	20.994873
2.3583984	19.762304
2.3608398	18.557987
2.3632812	17.846176
2.3657227	17.874384
2.368164	18.387627
2.3706055	18.889751
2.3730469	19.04326
2.3754883	18.80238
2.3779297	18.368858
2.380371	18.139044
2.3828125	18.598907
2.385254	20.021482
2.3876953	22.180937
2.3901367	24.50926
2.3925781	26.544744
2.3950195	28.253828
2.397461	30.014585
2.3999023	32.23687
2.4023438	34.896973
2.4047852	37.47072
2.4072266	39.307762
2.409668	40.033344
2.4121094	39.679317
2.4145508	38.524395
2.4169922	36.795708
2.4194336	34.48191
2.421875	31.418116
2.4243164	27.53609
2.4267578	23.038603
2.4291992	18.3992
2.4316406	14.262195
2.434082	11.357031
2.4365234	10.290733
2.4389648	10.961594
2.4414062	12.550986
2.4438477	14.309061
2.446289	15.822366
2.4487305	16.905012
2.4511719	17.494623
