
X-Axis: Frequency (hz)
Y-Axis: Fourier Amplitude (cm/s)
Number of Data Sets: 4


DATASET #1

Name: FAS H1 (cm/s)
Num Points: 2044
Info: 

X, Y Data:
0.009765625	0.07750077
0.012207031	0.10986873
0.014648438	0.14760333
0.017089844	0.19039792
0.01953125	0.23667076
0.021972656	0.2849962
0.024414062	0.3351362
0.026855469	0.3870161
0.029296875	0.440197
0.03173828	0.49489984
0.034179688	0.55216336
0.036621094	0.6128389
0.0390625	0.6779661
0.041503906	0.7502234
0.043945312	0.8335207
0.04638672	0.93090016
0.048828125	1.0437638
0.05126953	1.1730684
0.053710938	1.3198261
0.056152344	1.4832418
0.05859375	1.6588606
0.061035156	1.8404295
0.06347656	2.0241666
0.06591797	2.2096045
0.068359375	2.3955457
0.07080078	2.5774298
0.07324219	2.7501376
0.075683594	2.910872
0.078125	3.0568345
0.080566406	3.182101
0.08300781	3.2796662
0.08544922	3.3453243
0.087890625	3.377425
0.09033203	3.3748028
0.09277344	3.337913
0.095214844	3.2706773
0.09765625	3.1781456
0.10009766	3.0633273
0.10253906	2.9296384
0.10498047	2.7862785
0.10742188	2.6485026
0.10986328	2.533147
0.11230469	2.457481
0.11474609	2.4423542
0.1171875	2.5111156
0.11962891	2.680771
0.12207031	2.952828
0.12451172	3.3116555
0.12695312	3.7307398
0.12939453	4.1814985
0.13183594	4.638264
0.13427734	5.077403
0.13671875	5.4748254
0.13916016	5.8062935
0.14160156	6.0497684
0.14404297	6.1868935
0.14648438	6.2039037
0.14892578	6.0942497
0.15136719	5.862478
0.1538086	5.526364
0.15625	5.117517
0.1586914	4.6849375
0.16113281	4.3023543
0.16357422	4.06797
0.16601562	4.075645
0.16845703	4.3597307
0.17089844	4.8691916
0.17333984	5.5003014
0.17578125	6.1403785
0.17822266	6.691176
0.18066406	7.077331
0.18310547	7.2466383
0.18554688	7.1669755
0.18798828	6.825769
0.19042969	6.2342253
0.1928711	5.4327703
0.1953125	4.4940763
0.1977539	3.5266507
0.20019531	2.6875558
0.20263672	2.1853738
0.20507812	2.1328146
0.20751953	2.333095
0.20996094	2.4951425
0.21240234	2.4526737
0.21484375	2.1496828
0.21728516	1.6008716
0.21972656	0.8877674
0.22216797	0.4435824
0.22460938	1.0713434
0.22705078	1.7860658
0.22949219	2.2906764
0.2319336	2.4959142
0.234375	2.3813527
0.2368164	1.9831772
0.23925781	1.3797246
0.24169922	0.70346016
0.24414062	0.51631224
0.24658203	1.1313157
0.24902344	1.7756494
0.25146484	2.2962248
0.25390625	2.6579573
0.25634766	2.8583534
0.25878906	2.9062817
0.26123047	2.8049593
0.26367188	2.543456
0.26611328	2.1003127
0.2685547	1.4586638
0.2709961	0.6524541
0.2734375	0.61302584
0.2758789	1.6976244
0.2783203	2.834113
0.28076172	3.8236876
0.28320312	4.510484
0.28564453	4.779627
0.28808594	4.591305
0.29052734	4.0110517
0.29296875	3.238114
0.29541016	2.6276479
0.29785156	2.527408
0.30029297	2.8030298
0.30273438	3.0177026
0.30517578	2.930828
0.3076172	2.5560768
0.3100586	2.106743
0.3125	1.875737
0.3149414	1.9054133
0.3173828	1.9118944
0.31982422	1.6714386
0.32226562	1.2011315
0.32470703	0.9390649
0.32714844	1.4795885
0.32958984	2.3314128
0.33203125	3.1315682
0.33447266	3.7919312
0.33691406	4.3294277
0.33935547	4.7956324
0.34179688	5.220655
0.34423828	5.5823054
0.3466797	5.808225
0.3491211	5.7994018
0.3515625	5.463375
0.3540039	4.750766
0.3564453	3.6866941
0.35888672	2.3909628
0.36132812	1.1617742
0.36376953	1.1602032
0.36621094	2.2417016
0.36865234	3.3255777
0.37109375	4.249867
0.37353516	4.932571
0.37597656	5.256036
0.37841797	5.1025014
0.38085938	4.4189525
0.38330078	3.2546859
0.3857422	1.7797264
0.3881836	0.8430919
0.390625	2.1763444
0.3930664	3.7420936
0.3955078	4.924495
0.39794922	5.4283032
0.40039062	5.066776
0.40283203	3.8857932
0.40527344	2.4126513
0.40771484	2.2464788
0.41015625	3.456753
0.41259766	4.277146
0.41503906	4.12564
0.41748047	3.045948
0.41992188	1.4652023
0.42236328	0.7982965
0.4248047	1.8858675
0.4272461	2.5693786
0.4296875	2.6976235
0.4321289	2.469519
0.4345703	2.1431715
0.43701172	1.894207
0.43945312	1.7538832
0.44189453	1.6361461
0.44433594	1.4259955
0.44677734	1.0805159
0.44921875	0.67368263
0.45166016	0.29468095
0.45410156	0.18283108
0.45654297	0.96973765
0.45898438	2.044523
0.46142578	3.104612
0.4638672	3.749791
0.4663086	3.7021098
0.46875	2.979273
0.4711914	1.9453578
0.4736328	1.215125
0.47607422	1.0429165
0.47851562	0.88558203
0.48095703	0.8771279
0.48339844	1.3155594
0.48583984	1.6098475
0.48828125	1.5409847
0.49072266	1.8079517
0.49316406	3.0230503
0.49560547	4.513531
0.49804688	5.626229
0.5004883	6.0096846
0.5029297	5.64749
0.5053711	4.915907
0.5078125	4.4871387
0.5102539	4.6977296
0.5126953	5.0958953
0.5151367	5.1699347
0.5175781	4.7983127
0.52001953	4.10707
0.52246094	3.2432494
0.52490234	2.3026087
0.52734375	1.4629741
0.52978516	1.135143
0.53222656	1.2760192
0.53466797	1.2393936
0.5371094	0.896485
0.5395508	0.9727806
0.5419922	1.8265531
0.5444336	2.7511976
0.546875	3.4331691
0.5493164	3.758973
0.5517578	3.7272007
0.5541992	3.4355042
0.5566406	3.0695627
0.55908203	2.8531384
0.56152344	2.9453452
0.56396484	3.3609717
0.56640625	3.988327
0.56884766	4.626951
0.57128906	5.0442896
0.57373047	5.085466
0.5761719	4.766325
0.5786133	4.2564483
0.5810547	3.725088
0.5834961	3.1785219
0.5859375	2.5010946
0.5883789	1.6382728
0.5908203	0.6964099
0.5932617	0.47293812
0.5957031	1.1861689
0.59814453	1.774145
0.60058594	2.214285
0.60302734	2.5627668
0.60546875	2.8747501
0.60791016	3.1953373
0.61035156	3.5382516
0.61279297	3.8541036
0.6152344	4.0411587
0.6176758	4.002487
0.6201172	3.7022707
0.6225586	3.1892302
0.625	2.590343
0.6274414	2.1205099
0.6298828	2.1142418
0.6323242	2.7194366
0.6347656	3.6406143
0.63720703	4.516721
0.63964844	5.0926285
0.64208984	5.247081
0.64453125	5.016365
0.64697266	4.593132
0.64941406	4.272512
0.65185547	4.307429
0.6542969	4.7330747
0.6567383	5.370843
0.6591797	5.974837
0.6616211	6.3499107
0.6640625	6.43121
0.6665039	6.297144
0.6689453	6.0910616
0.6713867	5.9380093
0.6738281	5.941852
0.67626953	6.1558185
0.67871094	6.475316
0.68115234	6.6738024
0.68359375	6.594616
0.68603516	6.2502236
0.68847656	5.751659
0.69091797	5.191296
0.6933594	4.618547
0.6958008	4.101218
0.6982422	3.7433696
0.7006836	3.6064544
0.703125	3.6561708
0.7055664	3.8318636
0.7080078	4.1081405
0.7104492	4.4616275
0.7128906	4.8360186
0.71533203	5.166791
0.71777344	5.408979
0.72021484	5.5250316
0.72265625	5.4651437
0.72509766	5.1694794
0.72753906	4.575106
0.72998047	3.6181974
0.7324219	2.2977142
0.7348633	1.3786242
0.7373047	3.0289493
0.7397461	5.657229
0.7421875	8.35903
0.7446289	10.751866
0.7470703	12.584435
0.7495117	13.721458
0.7519531	14.128331
0.75439453	13.858533
0.75683594	13.031985
0.75927734	11.774983
0.76171875	10.145151
0.76416016	8.119791
0.76660156	5.700531
0.76904297	3.2404838
0.7714844	2.8957925
0.7739258	5.454856
0.7763672	8.338086
0.7788086	10.740081
0.78125	12.387483
0.7836914	13.200823
0.7861328	13.225857
0.7885742	12.606069
0.7910156	11.578828
0.79345703	10.469724
0.79589844	9.640318
0.79833984	9.330948
0.80078125	9.476648
0.80322266	9.753702
0.80566406	9.82289
0.80810547	9.49135
0.8105469	8.737832
0.8129883	7.672515
0.8154297	6.4731903
0.8178711	5.316675
0.8203125	4.3291154
0.8227539	3.5763934
0.8251953	3.0818725
0.8276367	2.8371136
0.8300781	2.8047433
0.83251953	2.9278607
0.83496094	3.1385152
0.83740234	3.367259
0.83984375	3.5487363
0.84228516	3.6227415
0.84472656	3.5446968
0.84716797	3.2961652
0.8496094	2.8799179
0.8520508	2.31377
0.8544922	1.6305535
0.8569336	0.88976645
0.859375	0.4478437
0.8618164	1.0229298
0.8642578	1.7151003
0.8666992	2.2295847
0.8691406	2.4888182
0.87158203	2.4784675
0.87402344	2.2166355
0.87646484	1.7383711
0.87890625	1.113838
0.88134766	0.61176074
0.88378906	0.98135835
0.88623047	1.7566617
0.8886719	2.5243638
0.8911133	3.1867182
0.8935547	3.7088933
0.8959961	4.1129203
0.8984375	4.4777403
0.9008789	4.8918953
0.9033203	5.387281
0.9057617	5.91519
0.9082031	6.3597813
0.91064453	6.560911
0.91308594	6.3567443
0.91552734	5.6357536
0.91796875	4.394914
0.92041016	2.9891791
0.92285156	3.031046
0.92529297	5.1939225
0.9277344	7.845198
0.9301758	10.147336
0.9326172	11.748104
0.9350586	12.595456
0.9375	12.875621
0.9399414	12.874615
0.9423828	12.775843
0.9448242	12.55372
0.9472656	12.066966
0.94970703	11.218465
0.95214844	10.029298
0.95458984	8.640134
0.95703125	7.2934833
0.95947266	6.275424
0.96191406	5.7570014
0.96435547	5.641656
0.9667969	5.6804037
0.9692383	5.7289133
0.9716797	5.845627
0.9741211	6.1799226
0.9765625	6.731644
0.9790039	7.2646255
0.9814453	7.498488
0.9838867	7.3541064
0.9863281	7.11814
0.98876953	7.40312
0.99121094	8.6008415
0.99365234	10.418342
0.99609375	12.294147
0.99853516	13.820871
1.0009766	14.79496
1.003418	15.171997
1.0058594	15.045156
1.0083008	14.610462
1.0107422	14.072078
1.0131836	13.521916
1.015625	12.895165
1.0180664	12.053325
1.0205078	10.917639
1.0229492	9.5351095
1.0253906	8.044151
1.027832	6.5905914
1.0302734	5.263894
1.0327148	4.0861664
1.0351562	3.0391939
1.0375977	2.099893
1.0400391	1.2781163
1.0424805	0.7527863
1.0449219	0.98756164
1.0473633	1.5924771
1.0498047	2.1423018
1.0522461	2.490131
1.0546875	2.6140778
1.0571289	2.6757514
1.0595703	3.0145586
1.0620117	3.8424473
1.0644531	5.020348
1.0668945	6.2766128
1.0693359	7.383707
1.0717773	8.200612
1.0742188	8.680527
1.0766602	8.861067
1.0791016	8.829652
1.081543	8.661084
1.0839844	8.364825
1.0864258	7.907276
1.0888672	7.303837
1.0913086	6.6950173
1.09375	6.3322835
1.0961914	6.4224997
1.0986328	6.9216113
1.1010742	7.568892
1.1035156	8.10881
1.105957	8.408874
1.1083984	8.434364
1.1108398	8.162739
1.1132812	7.51497
1.1157227	6.3640223
1.1181641	4.6261463
1.1206055	2.455809
1.1230469	1.8412694
1.1254883	4.463165
1.1279297	7.4227014
1.1303711	10.034245
1.1328125	12.040838
1.1352539	13.383935
1.1376953	14.152549
1.1401367	14.493283
1.1425781	14.53993
1.1450195	14.404199
1.1474609	14.197372
1.1499023	14.030484
1.1523438	13.983198
1.1547852	14.076525
1.1572266	14.286607
1.159668	14.595539
1.1621094	15.029294
1.1645508	15.639821
1.1669922	16.445568
1.1694336	17.383732
1.171875	18.311195
1.1743164	19.039726
1.1767578	19.37946
1.1791992	19.179451
1.1816406	18.370651
1.184082	17.007322
1.1865234	15.289477
1.1889648	13.537828
1.1914062	12.091448
1.1938477	11.140118
1.1962891	10.631045
1.1987305	10.381602
1.2011719	10.246576
1.2036133	10.136734
1.2060547	9.94729
1.2084961	9.55015
1.2109375	8.863754
1.2133789	7.917077
1.2158203	6.8617187
1.2182617	5.934116
1.2207031	5.347114
1.2231445	5.110024
1.2255859	4.9872627
1.2280273	4.723808
1.2304688	4.2565546
1.2329102	3.7521298
1.2353516	3.4892447
1.237793	3.5937858
1.2402344	3.911746
1.2426758	4.228133
1.2451172	4.4323773
1.2475586	4.5072207
1.25	4.4808
1.2524414	4.3948894
1.2548828	4.2861695
1.2573242	4.1703296
1.2597656	4.03346
1.262207	3.8447719
1.2646484	3.5908582
1.2670898	3.3035586
1.2695312	3.0502186
1.2719727	2.9007444
1.2744141	2.9360964
1.2768555	3.2750366
1.2792969	3.9684577
1.2817383	4.8742332
1.2841797	5.732372
1.2866211	6.303829
1.2890625	6.445995
1.2915039	6.119985
1.2939453	5.3520255
1.2963867	4.1953106
1.2988281	2.7354844
1.3012695	1.1433454
1.3037109	0.71088654
1.3061523	1.9770582
1.3085938	2.8990424
1.3110352	3.2948089
1.3134766	3.129559
1.315918	2.4589508
1.3183594	1.5496039
1.3208008	1.601047
1.3232422	3.110245
1.3256836	4.995601
1.328125	6.8611875
1.3305664	8.51177
1.3330078	9.814923
1.3354492	10.685096
1.3378906	11.077542
1.340332	10.982306
1.3427734	10.420585
1.3452148	9.447436
1.3476562	8.159896
1.3500977	6.706222
1.3525391	5.297844
1.3549805	4.2206535
1.3574219	3.7642548
1.3598633	3.9312093
1.3623047	4.3565326
1.3647461	4.659222
1.3671875	4.6076765
1.3696289	4.134363
1.3720703	3.3950207
1.3745117	2.918773
1.3769531	3.432251
1.3793945	4.815928
1.3818359	6.5086637
1.3842773	8.162987
1.3867188	9.568614
1.3891602	10.605284
1.3916016	11.253484
1.394043	11.582601
1.3964844	11.695735
1.3989258	11.660352
1.4013672	11.464561
1.4038086	11.023632
1.40625	10.236816
1.4086914	9.063613
1.4111328	7.5724225
1.4135742	5.936348
1.4160156	4.3936467
1.418457	3.1995306
1.4208984	2.544584
1.4233398	2.4099052
1.4257812	2.625096
1.4282227	3.0958123
1.4306641	3.750536
1.4331055	4.460853
1.4355469	5.1055284
1.4379883	5.63343
1.4404297	6.0602155
1.4428711	6.430307
1.4453125	6.7871094
1.4477539	7.1623554
1.4501953	7.5716844
1.4526367	8.014382
1.4550781	8.481733
1.4575195	8.961687
1.4599609	9.420076
1.4624023	9.774155
1.4648438	9.897831
1.4672852	9.670334
1.4697266	9.037119
1.472168	8.053267
1.4746094	6.8964276
1.4770508	5.8274636
1.4794922	5.0509562
1.4819336	4.520668
1.484375	3.9557312
1.4868164	3.1098325
1.4892578	2.046636
1.4916992	1.7596631
1.4941406	3.1619046
1.496582	5.1286364
1.4990234	7.1686277
1.5014648	9.164714
1.5039062	11.074356
1.5063477	12.826084
1.5087891	14.305829
1.5112305	15.412203
1.5136719	16.11464
1.5161133	16.461174
1.5185547	16.537987
1.5209961	16.417435
1.5234375	16.125605
1.5258789	15.639853
1.5283203	14.910851
1.5307617	13.899559
1.5332031	12.613506
1.5356445	11.121632
1.5380859	9.531203
1.5405273	7.9323144
1.5429688	6.349602
1.5454102	4.7508383
1.5478516	3.1117816
1.550293	1.4884728
1.5527344	0.5066587
1.5551758	1.6192425
1.5576172	2.682338
1.5600586	3.4587395
1.5625	3.9581685
1.5649414	4.2102776
1.5673828	4.253391
1.5698242	4.1877785
1.5722656	4.2209325
1.574707	4.554791
1.5771484	5.165769
1.5795898	5.847196
1.5820312	6.4576106
1.5844727	7.029978
1.5869141	7.6716585
1.5893555	8.386691
1.5917969	9.033219
1.5942383	9.447651
1.5966797	9.571142
1.5991211	9.480466
1.6015625	9.333314
1.6040039	9.274623
1.6064453	9.362113
1.6088867	9.560895
1.6113281	9.79092
1.6137695	9.963773
1.6162109	9.982993
1.6186523	9.746118
1.6210938	9.183864
1.6235352	8.318487
1.6259766	7.2890215
1.628418	6.3094316
1.6308594	5.570945
1.6333008	5.15842
1.6357422	5.0840735
1.6381836	5.4089947
1.640625	6.2554617
1.6430664	7.6707983
1.6455078	9.558196
1.6479492	11.738628
1.6503906	14.020914
1.652832	16.230953
1.6552734	18.21407
1.6577148	19.82617
1.6601562	20.929874
1.6625977	21.410072
1.6650391	21.20431
1.6674805	20.325819
1.6699219	18.85722
1.6723633	16.919493
1.6748047	14.641093
1.6772461	12.147328
1.6796875	9.569334
1.6821289	7.064797
1.6845703	4.8713136
1.6870117	3.4769158
1.6894531	3.5850916
1.6918945	4.879629
1.6943359	6.5645957
1.6967773	8.274129
1.6992188	9.81953
1.7016602	11.071766
1.7041016	11.971853
1.706543	12.551661
1.7089844	12.926789
1.7114258	13.251799
1.7138672	13.649249
1.7163086	14.155007
1.71875	14.723955
1.7211914	15.280171
1.7236328	15.75827
1.7260742	16.112013
1.7285156	16.306295
1.730957	16.311726
1.7333984	16.107521
1.7358398	15.69637
1.7382812	15.124295
1.7407227	14.481223
1.7431641	13.857409
1.7456055	13.277904
1.7480469	12.680933
1.7504883	11.968866
1.7529297	11.074461
1.7553711	9.981391
1.7578125	8.704399
1.7602539	7.272541
1.7626953	5.738718
1.7651367	4.2221065
1.7675781	3.030391
1.7700195	2.8052623
1.7724609	3.6830275
1.7749023	4.9644265
1.7773438	6.2250643
1.7797852	7.331357
1.7822266	8.256091
1.784668	8.982108
1.7871094	9.460562
1.7895508	9.626179
1.7919922	9.441444
1.7944336	8.922708
1.796875	8.125106
1.7993164	7.104989
1.8017578	5.901776
1.8041992	4.5627403
1.8066406	3.1830704
1.809082	1.9117957
1.8115234	0.89910173
1.8139648	0.22186702
1.8164062	0.4121204
1.8188477	0.9696819
1.8212891	1.5865647
1.8237305	2.1460824
1.8261719	2.537803
1.8286133	2.7178812
1.8310547	2.6996596
1.8334961	2.5129137
1.8359375	2.1889782
1.8383789	1.8080792
1.8408203	1.5942388
1.8432617	1.8160555
1.8457031	2.3601143
1.8481445	2.914125
1.8505859	3.270082
1.8530273	3.331555
1.8554688	3.0921586
1.8579102	2.620998
1.8603516	2.0389643
1.862793	1.4770542
1.8652344	1.0214827
1.8676758	0.67684036
1.8701172	0.3863708
1.8725586	0.08231557
1.875	0.3312529
1.8774414	0.87143666
1.8798828	1.5378145
1.8823242	2.253671
1.8847656	2.909825
1.887207	3.400796
1.8896484	3.6542695
1.8920898	3.6567066
1.8945312	3.4764533
1.8969727	3.2692568
1.8994141	3.224754
1.9018555	3.4469173
1.9042969	3.909175
1.9067383	4.5461254
1.9091797	5.3006415
1.9116211	6.090328
1.9140625	6.7981844
1.9165039	7.3154507
1.9189453	7.5904813
1.9213867	7.641492
1.9238281	7.52579
1.9262695	7.288661
1.9287109	6.935115
1.9311523	6.446767
1.9335938	5.822397
1.9360352	5.106039
1.9384766	4.3879685
1.940918	3.784272
1.9433594	3.40128
1.9458008	3.2958941
1.9482422	3.4646165
1.9506836	3.8711102
1.953125	4.462585
1.9555664	5.162671
1.9580078	5.877805
1.9604492	6.5237494
1.9628906	7.0477653
1.965332	7.4294844
1.9677734	7.665712
1.9702148	7.7585588
1.9726562	7.720023
1.9750977	7.5853434
1.9775391	7.412591
1.9799805	7.2557197
1.9824219	7.1258264
1.9848633	6.972147
1.9873047	6.6994934
1.9897461	6.203809
1.9921875	5.406211
1.9946289	4.282433
1.9970703	2.9037402
1.9995117	1.6034422
2.0019531	1.6753781
2.0043945	3.0105214
2.006836	4.3894773
2.0092773	5.536066
2.0117188	6.4165072
2.0141602	7.074943
2.0166016	7.5634575
2.019043	7.899455
2.0214844	8.069215
2.0239258	8.066233
2.0263672	7.9230304
2.0288086	7.7031803
2.03125	7.4597564
2.0336914	7.200332
2.0361328	6.893727
2.0385742	6.5091586
2.0410156	6.048548
2.043457	5.5480523
2.0458984	5.051773
2.0483398	4.5781064
2.0507812	4.1061263
2.0532227	3.5994747
2.055664	3.0494876
2.0581055	2.5026987
2.0605469	2.0505686
2.0629883	1.774929
2.0654297	1.6775444
2.067871	1.6906344
2.0703125	1.764569
2.072754	1.8998519
2.0751953	2.1166294
2.0776367	2.4210455
2.0800781	2.7925577
2.0825195	3.1868217
2.084961	3.5445988
2.0874023	3.806006
2.0898438	3.9296541
2.0922852	3.9119642
2.0947266	3.7923892
2.097168	3.6309617
2.0996094	3.4711754
2.1020508	3.3349082
2.1044922	3.2712076
2.1069336	3.3836057
2.109375	3.7427466
2.1118164	4.2772484
2.1142578	4.819746
2.1166992	5.224487
2.1191406	5.4269743
2.121582	5.443157
2.1240234	5.333994
2.1264648	5.157171
2.1289062	4.9324284
2.1313477	4.6411815
2.133789	4.253849
2.1362305	3.7580397
2.1386719	3.1716
2.1411133	2.5414968
2.1435547	1.937868
2.145996	1.4509023
2.1484375	1.1811814
2.150879	1.168958
2.1533203	1.3319225
2.1557617	1.5800776
2.1582031	1.8843004
2.1606445	2.2386417
2.163086	2.6234903
2.1655273	2.996929
2.1679688	3.3078623
2.1704102	3.5167744
2.1728516	3.6114497
2.175293	3.6113312
2.1777344	3.5588307
2.1801758	3.5007493
2.1826172	3.4659436
2.1850586	3.451603
2.1875	3.4284947
2.1899414	3.3595982
2.1923828	3.217375
2.1948242	2.989231
2.1972656	2.6728432
2.199707	2.2688224
2.2021484	1.7796724
2.2045898	1.2154291
2.2070312	0.6028302
2.2094727	0.19971982
2.211914	0.77552
2.2143555	1.4360399
2.2167969	2.0982597
2.2192383	2.7386868
2.2216797	3.3108027
2.224121	3.750308
2.2265625	4.0002956
2.229004	4.03798
2.2314453	3.8866985
2.2338867	3.6062255
2.2363281	3.2694335
2.2387695	2.9401674
2.241211	2.6627786
2.2436523	2.457629
2.2460938	2.3166027
2.2485352	2.207887
2.2509766	2.0953546
2.253418	1.9584544
2.2558594	1.7982955
2.2583008	1.6322397
2.2607422	1.4811568
2.2631836	1.3543867
2.265625	1.2491282
2.2680664	1.1771593
2.2705078	1.1892635
2.2729492	1.3340331
2.2753906	1.5881956
2.277832	1.8854623
2.2802734	2.1821322
2.2827148	2.4700954
2.2851562	2.7524478
2.2875977	3.0162838
2.290039	3.226414
2.2924805	3.340425
2.2949219	3.3299592
2.2973633	3.1947613
2.2998047	2.9625251
2.302246	2.674649
2.3046875	2.3647091
2.307129	2.0438738
2.3095703	1.7031064
2.3120117	1.3303125
2.3144531	0.9396847
2.3168945	0.6609738
2.319336	0.8418038
2.3217773	1.4260083
2.3242188	2.1752043
2.3266602	2.9886594
2.3291016	3.7910306
2.331543	4.5104437
2.3339844	5.0897374
2.3364258	5.4988313
2.3388672	5.738488
2.3413086	5.834749
2.34375	5.8265443
2.3461914	5.7495813
2.3486328	5.6204863
2.3510742	5.42949
2.3535156	5.148253
2.355957	4.748068
2.3583984	4.218298
2.3608398	3.5764768
2.3632812	2.867941
2.3657227	2.157681
2.368164	1.5181514
2.3706055	1.017379
2.3730469	0.7108292
2.3754883	0.6111021
2.3779297	0.6408075
2.380371	0.7116573
2.3828125	0.8067977
2.385254	0.97274774
2.3876953	1.2606735
2.3901367	1.6612983
2.3925781	2.116655
2.3950195	2.5682635
2.397461	2.9853206
2.3999023	3.3659215
2.4023438	3.7184165
2.4047852	4.0387597
2.4072266	4.3060646
2.409668	4.500101
2.4121094	4.623455
2.4145508	4.709129
2.4169922	4.8049765
2.4194336	4.9427605
2.421875	5.114553
2.4243164	5.277231
2.4267578	5.3787546
2.4291992	5.3848715
2.4316406	5.293468
2.434082	5.1337895
2.4365234	4.9523973
2.4389648	4.7913485
2.4414062	4.6724424
2.4438477	4.5976815
2.446289	4.5580335
2.4487305	4.5335374
2.4511719	4.4847136
