
X-Axis: Frequency (hz)
Y-Axis: Fourier Amplitude (cm/s)
Number of Data Sets: 4


DATASET #1

Name: FAS H1 (cm/s)
Num Points: 2044
Info: 

X, Y Data:
0.009765625	0.0726583
0.012207031	0.10311189
0.014648438	0.14779098
0.017089844	0.21180625
0.01953125	0.29986206
0.021972656	0.4147256
0.024414062	0.55878645
0.026855469	0.7363663
0.029296875	0.9544596
0.03173828	1.2223905
0.034179688	1.5497245
0.036621094	1.942944
0.0390625	2.4039567
0.041503906	2.9303148
0.043945312	3.513665
0.04638672	4.1379814
0.048828125	4.7818065
0.05126953	5.4229894
0.053710938	6.0416923
0.056152344	6.620823
0.05859375	7.1467023
0.061035156	7.6110144
0.06347656	8.012451
0.06591797	8.356114
0.068359375	8.649944
0.07080078	8.899936
0.07324219	9.108816
0.075683594	9.279849
0.078125	9.419344
0.080566406	9.533696
0.08300781	9.627034
0.08544922	9.706046
0.087890625	9.7872715
0.09033203	9.896721
0.09277344	10.060913
0.095214844	10.298982
0.09765625	10.622437
0.10009766	11.038565
0.10253906	11.550365
0.10498047	12.152707
0.10742188	12.829797
0.10986328	13.55653
0.11230469	14.303396
0.11474609	15.043573
0.1171875	15.758929
0.11962891	16.44103
0.12207031	17.085167
0.12451172	17.681067
0.12695312	18.209112
0.12939453	18.646101
0.13183594	18.97376
0.13427734	19.181265
0.13671875	19.263401
0.13916016	19.22224
0.14160156	19.074697
0.14404297	18.85864
0.14648438	18.629719
0.14892578	18.4501
0.15136719	18.377771
0.1538086	18.46016
0.15625	18.730055
0.1586914	19.201773
0.16113281	19.868134
0.16357422	20.699093
0.16601562	21.642487
0.16845703	22.626657
0.17089844	23.566624
0.17333984	24.376387
0.17578125	24.985579
0.17822266	25.351759
0.18066406	25.460968
0.18310547	25.318869
0.18554688	24.942877
0.18798828	24.362467
0.19042969	23.623451
0.1928711	22.786005
0.1953125	21.912714
0.1977539	21.053854
0.20019531	20.237736
0.20263672	19.4678
0.20507812	18.726898
0.20751953	17.989086
0.20996094	17.23708
0.21240234	16.479023
0.21484375	15.755731
0.21728516	15.130314
0.21972656	14.658605
0.22216797	14.353568
0.22460938	14.168352
0.22705078	14.014946
0.22949219	13.808445
0.2319336	13.508959
0.234375	13.141819
0.2368164	12.793335
0.23925781	12.582346
0.24169922	12.604067
0.24414062	12.867921
0.24658203	13.286099
0.24902344	13.733945
0.25146484	14.127212
0.25390625	14.456711
0.25634766	14.769354
0.25878906	15.1204
0.26123047	15.532199
0.26367188	15.984083
0.26611328	16.432251
0.2685547	16.838337
0.2709961	17.185314
0.2734375	17.47267
0.2758789	17.696472
0.2783203	17.82848
0.28076172	17.807621
0.28320312	17.546429
0.28564453	16.944386
0.28808594	15.901949
0.29052734	14.340149
0.29296875	12.232551
0.29541016	9.643361
0.29785156	6.7512326
0.30029297	3.8558605
0.30273438	1.5852664
0.30517578	2.0193722
0.3076172	3.4993536
0.3100586	4.702921
0.3125	6.0412107
0.3149414	8.239911
0.3173828	11.564544
0.31982422	15.648762
0.32226562	19.847977
0.32470703	23.493614
0.32714844	26.014011
0.32958984	27.00277
0.33203125	26.282574
0.33447266	24.00467
0.33691406	20.804403
0.33935547	17.9515
0.34179688	17.014841
0.34423828	18.349665
0.3466797	20.494568
0.3491211	21.74682
0.3515625	21.054863
0.3540039	18.048832
0.3564453	13.125832
0.35888672	8.484157
0.36132812	10.259112
0.36376953	17.234144
0.36621094	24.449184
0.36865234	30.049332
0.37109375	33.134457
0.37353516	33.259464
0.37597656	30.393042
0.37841797	24.951616
0.38085938	17.833475
0.38330078	10.641986
0.3857422	7.3804655
0.3881836	11.026383
0.390625	15.86959
0.3930664	19.45683
0.3955078	21.603497
0.39794922	22.950815
0.40039062	24.341812
0.40283203	26.01795
0.40527344	27.348808
0.40771484	27.431835
0.41015625	25.772781
0.41259766	22.584074
0.41503906	18.961103
0.41748047	17.135647
0.41992188	19.149738
0.42236328	23.842285
0.4248047	28.423822
0.4272461	30.851824
0.4296875	30.166483
0.4321289	26.486881
0.4345703	20.984888
0.43701172	15.986217
0.43945312	14.716849
0.44189453	17.55192
0.44433594	21.287457
0.44677734	23.83063
0.44921875	24.798794
0.45166016	24.737381
0.45410156	24.242401
0.45654297	23.311394
0.45898438	21.536173
0.46142578	18.767103
0.4638672	15.431448
0.4663086	12.36611
0.46875	10.318821
0.4711914	9.251525
0.4736328	8.346255
0.47607422	6.974108
0.47851562	5.242908
0.48095703	3.820794
0.48339844	3.405935
0.48583984	4.48096
0.48828125	7.333051
0.49072266	11.450771
0.49316406	15.673295
0.49560547	18.646294
0.49804688	19.384485
0.5004883	18.027994
0.5029297	16.590881
0.5053711	17.95384
0.5078125	21.68005
0.5102539	24.606678
0.5126953	24.49063
0.5151367	20.950993
0.5175781	15.849247
0.52001953	13.86071
0.52246094	17.25763
0.52490234	21.462347
0.52734375	23.308104
0.52978516	22.218819
0.53222656	18.837322
0.53466797	14.23409
0.5371094	9.541728
0.5395508	6.197444
0.5419922	6.606312
0.5444336	10.301215
0.546875	15.077904
0.5493164	19.921732
0.5517578	24.083103
0.5541992	26.991648
0.5566406	28.584736
0.55908203	29.327822
0.56152344	29.553188
0.56396484	28.84292
0.56640625	26.476522
0.56884766	22.507017
0.57128906	18.460276
0.57373047	16.736876
0.5761719	17.503479
0.5786133	18.061512
0.5810547	16.488113
0.5834961	12.795074
0.5859375	8.2403345
0.5883789	4.376138
0.5908203	2.08347
0.5932617	1.342227
0.5957031	3.1262512
0.59814453	5.9050965
0.60058594	8.326785
0.60302734	9.619614
0.60546875	9.584406
0.60791016	8.538244
0.61035156	7.0914984
0.61279297	5.922577
0.6152344	5.451209
0.6176758	5.5054812
0.6201172	5.688808
0.6225586	5.8615212
0.625	6.0729685
0.6274414	6.393351
0.6298828	6.9377813
0.6323242	7.916036
0.6347656	9.426673
0.63720703	11.234962
0.63964844	12.945168
0.64208984	14.328976
0.64453125	15.531943
0.64697266	17.007109
0.64941406	18.953074
0.65185547	20.872995
0.6542969	22.168558
0.6567383	23.044502
0.6591797	24.458937
0.6616211	26.98274
0.6640625	30.076727
0.6665039	32.748676
0.6689453	34.36671
0.6713867	34.706554
0.6738281	33.530613
0.67626953	30.493393
0.67871094	25.61948
0.68115234	19.807245
0.68359375	15.204774
0.68603516	15.026975
0.68847656	19.614338
0.69091797	26.311407
0.6933594	33.48183
0.6958008	40.262455
0.6982422	45.9225
0.7006836	49.841778
0.703125	51.612637
0.7055664	51.091064
0.7080078	48.468178
0.7104492	44.302284
0.7128906	39.38512
0.71533203	34.467964
0.71777344	29.976898
0.72021484	25.909136
0.72265625	22.091425
0.72509766	18.622673
0.72753906	16.134848
0.72998047	15.663079
0.7324219	17.796299
0.7348633	21.99889
0.7373047	27.281233
0.7397461	32.77452
0.7421875	37.743763
0.7446289	41.502872
0.7470703	43.43453
0.7495117	43.20053
0.7519531	41.0562
0.75439453	38.02439
0.75683594	35.6063
0.75927734	34.85199
0.76171875	35.570816
0.76416016	36.798027
0.76660156	37.701336
0.76904297	37.823296
0.7714844	37.01869
0.7739258	35.526695
0.7763672	33.99592
0.7788086	33.145527
0.78125	33.235756
0.7836914	33.97143
0.7861328	34.896164
0.7885742	35.69624
0.7910156	36.230835
0.79345703	36.472683
0.79589844	36.43193
0.79833984	36.07279
0.80078125	35.28619
0.80322266	33.945324
0.80566406	31.985712
0.80810547	29.441368
0.8105469	26.445988
0.8129883	23.262999
0.8154297	20.32978
0.8178711	18.209944
0.8203125	17.403759
0.8227539	18.093971
0.8251953	20.008398
0.8276367	22.560705
0.8300781	25.117367
0.83251953	27.15885
0.83496094	28.302717
0.83740234	28.290932
0.83984375	27.033579
0.84228516	24.71694
0.84472656	21.92633
0.84716797	19.640207
0.8496094	18.718204
0.8520508	19.002457
0.8544922	19.468927
0.8569336	19.301958
0.859375	18.31578
0.8618164	16.720663
0.8642578	14.846019
0.8666992	13.047118
0.8691406	11.691494
0.87158203	11.083071
0.87402344	11.374711
0.87646484	12.549712
0.87890625	14.390029
0.88134766	16.45495
0.88378906	18.204145
0.88623047	19.2069
0.8886719	19.287048
0.8911133	18.542389
0.8935547	17.285646
0.8959961	15.953408
0.8984375	14.95292
0.9008789	14.438291
0.9033203	14.216256
0.9057617	13.9634
0.9082031	13.536819
0.91064453	13.102231
0.91308594	13.027324
0.91552734	13.596998
0.91796875	14.750777
0.92041016	16.095364
0.92285156	17.102785
0.92529297	17.279041
0.9277344	16.290382
0.9301758	14.077299
0.9326172	10.944227
0.9350586	7.738099
0.9375	6.3799033
0.9399414	8.203678
0.9423828	11.150551
0.9448242	13.440519
0.9472656	14.308644
0.94970703	13.687221
0.95214844	12.480093
0.95458984	12.830815
0.95703125	16.277704
0.95947266	21.765663
0.96191406	27.701126
0.96435547	33.143272
0.9667969	37.65111
0.9692383	41.03858
0.9716797	43.20646
0.9741211	44.084476
0.9765625	43.72386
0.9790039	42.485344
0.9814453	41.14424
0.9838867	40.67356
0.9863281	41.609295
0.98876953	43.493713
0.99121094	45.0898
0.99365234	45.107174
0.99609375	42.74298
0.99853516	37.8977
1.0009766	31.30247
1.003418	24.785965
1.0058594	21.38534
1.0083008	22.935638
1.0107422	27.053263
1.0131836	30.507809
1.015625	31.558111
1.0180664	29.605864
1.0205078	24.776426
1.0229492	17.677729
1.0253906	9.428094
1.027832	4.8563952
1.0302734	11.299645
1.0327148	18.366545
1.0351562	23.442495
1.0375977	26.102112
1.0400391	26.594452
1.0424805	25.538048
1.0449219	23.64446
1.0473633	21.613874
1.0498047	20.244831
1.0522461	20.40483
1.0546875	22.516222
1.0571289	26.195635
1.0595703	30.622322
1.0620117	34.948486
1.0644531	38.458622
1.0668945	40.67254
1.0693359	41.388393
1.0717773	40.616093
1.0742188	38.47742
1.0766602	35.196587
1.0791016	31.173008
1.081543	27.008629
1.0839844	23.429358
1.0864258	21.269936
1.0888672	21.517124
1.0913086	24.872505
1.09375	31.235178
1.0961914	40.015224
1.0986328	50.348118
1.1010742	60.946068
1.1035156	70.260544
1.105957	77.017105
1.1083984	80.64896
1.1108398	81.255226
1.1132812	79.17521
1.1157227	74.63748
1.1181641	67.81024
1.1206055	59.083645
1.1230469	49.189842
1.1254883	39.05253
1.1279297	29.572632
1.1303711	21.599958
1.1328125	16.387644
1.1352539	15.957588
1.1376953	20.172941
1.1401367	26.070509
1.1425781	31.335531
1.1450195	34.90263
1.1474609	36.642044
1.1499023	36.895767
1.1523438	35.99303
1.1547852	34.215687
1.1572266	32.234184
1.159668	31.311626
1.1621094	32.59134
1.1645508	36.118786
1.1669922	41.077763
1.1694336	46.57678
1.171875	51.831882
1.1743164	56.17321
1.1767578	59.29335
1.1791992	61.41778
1.1816406	63.060593
1.184082	64.56512
1.1865234	65.95246
1.1889648	67.15623
1.1914062	68.16074
1.1938477	68.80711
1.1962891	68.631
1.1987305	67.044075
1.2011719	63.65699
1.2036133	58.44015
1.2060547	51.721806
1.2084961	44.15758
1.2109375	36.66959
1.2133789	30.232647
1.2158203	25.49511
1.2182617	22.517368
1.2207031	20.968548
1.2231445	20.58956
1.2255859	21.43258
1.2280273	23.72567
1.2304688	27.550745
1.2329102	32.71678
1.2353516	38.881386
1.237793	45.5706
1.2402344	52.066715
1.2426758	57.459846
1.2451172	60.938675
1.2475586	62.089718
1.25	60.99019
1.2524414	58.093708
1.2548828	53.99121
1.2573242	49.093117
1.2597656	43.345825
1.262207	36.329575
1.2646484	28.01866
1.2670898	20.443632
1.2695312	20.044516
1.2719727	29.450783
1.2744141	42.897903
1.2768555	56.83116
1.2792969	69.42557
1.2817383	79.25592
1.2841797	85.219055
1.2866211	86.79046
1.2890625	84.17491
1.2915039	78.24114
1.2939453	70.31274
1.2963867	61.872227
1.2988281	54.224094
1.3012695	48.25753
1.3037109	44.41741
1.3061523	42.680622
1.3085938	42.414608
1.3110352	42.58261
1.3134766	42.417057
1.315918	41.88491
1.3183594	41.515873
1.3208008	41.83146
1.3232422	42.91034
1.3256836	44.371445
1.328125	45.620613
1.3305664	46.119164
1.3330078	45.533047
1.3354492	43.67012
1.3378906	40.32695
1.340332	35.330563
1.3427734	28.815056
1.3452148	21.439627
1.3476562	14.295019
1.3500977	8.53636
1.3525391	4.8651295
1.3549805	2.8156161
1.3574219	1.3366673
1.3598633	2.9260578
1.3623047	6.416072
1.3647461	10.16842
1.3671875	13.510411
1.3696289	15.920183
1.3720703	16.973965
1.3745117	16.390293
1.3769531	14.179461
1.3793945	10.770547
1.3818359	6.949708
1.3842773	3.677358
1.3867188	2.4374044
1.3891602	3.6736724
1.3916016	5.1939135
1.394043	6.151446
1.3964844	6.1812234
1.3989258	5.274838
1.4013672	4.1201034
1.4038086	4.2423444
1.40625	5.7831235
1.4086914	7.3337045
1.4111328	8.21248
1.4135742	8.516245
1.4160156	8.759984
1.418457	9.23729
1.4208984	9.583342
1.4233398	9.166426
1.4257812	7.6374555
1.4282227	5.0939875
1.4306641	2.1263804
1.4331055	2.5680432
1.4355469	6.0011005
1.4379883	9.573481
1.4404297	13.084737
1.4428711	16.469524
1.4453125	19.641249
1.4477539	22.525894
1.4501953	25.125208
1.4526367	27.525108
1.4550781	29.824787
1.4575195	32.019733
1.4599609	33.922665
1.4624023	35.204422
1.4648438	35.558357
1.4672852	34.886482
1.4697266	33.375244
1.472168	31.3986
1.4746094	29.303478
1.4770508	27.228859
1.4794922	25.097626
1.4819336	22.774185
1.484375	20.234907
1.4868164	17.592548
1.4892578	14.980748
1.4916992	12.502522
1.4941406	10.375004
1.496582	9.050437
1.4990234	8.990128
1.5014648	10.280907
1.5039062	12.599729
1.5063477	15.34287
1.5087891	17.806961
1.5112305	19.523895
1.5136719	20.45675
1.5161133	20.792015
1.5185547	20.51125
1.5209961	19.36624
1.5234375	17.632435
1.5258789	17.116482
1.5283203	20.124619
1.5307617	26.083803
1.5332031	32.70847
1.5356445	38.563007
1.5380859	43.33372
1.5405273	47.265747
1.5429688	50.51788
1.5454102	52.908245
1.5478516	54.154087
1.550293	54.23276
1.5527344	53.481255
1.5551758	52.346687
1.5576172	51.01341
1.5600586	49.26388
1.5625	46.673454
1.5649414	42.87611
1.5673828	37.69306
1.5698242	31.219362
1.5722656	24.100634
1.574707	18.251724
1.5771484	17.42632
1.5795898	22.807875
1.5820312	31.23577
1.5844727	40.618645
1.5869141	50.042374
1.5893555	58.710728
1.5917969	65.67256
1.5942383	70.02981
1.5966797	71.31008
1.5991211	69.748535
1.6015625	66.275024
1.6040039	62.13261
1.6064453	58.37812
1.6088867	55.76195
1.6113281	55.041092
1.6137695	56.90844
1.6162109	61.163704
1.6186523	66.378845
1.6210938	70.7874
1.6235352	73.35033
1.6259766	74.10676
1.628418	73.78183
1.6308594	73.017105
1.6333008	71.83412
1.6357422	69.73104
1.6381836	66.201324
1.640625	61.185753
1.6430664	55.21272
1.6455078	49.21558
1.6479492	44.106575
1.6503906	40.39079
1.652832	38.201443
1.6552734	37.64321
1.6577148	38.795704
1.6601562	41.337547
1.6625977	44.548115
1.6650391	47.837463
1.6674805	51.12881
1.6699219	54.663536
1.6723633	58.448593
1.6748047	62.008415
1.6772461	64.76728
1.6796875	66.60907
1.6821289	68.00583
1.6845703	69.577774
1.6870117	71.520645
1.6894531	73.47744
1.6918945	74.91323
1.6943359	75.54329
1.6967773	75.481255
1.6992188	75.09047
1.7016602	74.69184
1.7041016	74.33079
1.706543	73.76505
1.7089844	72.65091
1.7114258	70.73685
1.7138672	67.923676
1.7163086	64.21894
1.71875	59.731804
1.7211914	54.841785
1.7236328	50.511604
1.7260742	48.362644
1.7285156	49.82276
1.730957	54.672726
1.7333984	60.99222
1.7358398	66.48911
1.7382812	69.47335
1.7407227	69.17873
1.7431641	65.736595
1.7456055	59.913986
1.7480469	52.725018
1.7504883	45.118835
1.7529297	37.843857
1.7553711	31.381506
1.7578125	25.828812
1.7602539	20.893595
1.7626953	16.179611
1.7651367	11.569124
1.7675781	7.5013995
1.7700195	5.613604
1.7724609	7.5729246
1.7749023	11.412641
1.7773438	15.645172
1.7797852	19.665897
1.7822266	23.000801
1.784668	25.257484
1.7871094	26.228191
1.7895508	25.959309
1.7919922	24.742245
1.7944336	22.988464
1.796875	20.9993
1.7993164	18.771767
1.8017578	16.032108
1.8041992	12.477841
1.8066406	8.018726
1.809082	3.1461303
1.8115234	4.098732
1.8139648	9.550079
1.8164062	14.651658
1.8188477	18.77506
1.8212891	21.71718
1.8237305	23.531315
1.8261719	24.376368
1.8286133	24.366137
1.8310547	23.557415
1.8334961	22.078983
1.8359375	20.247908
1.8383789	18.52628
1.8408203	17.309498
1.8432617	16.697845
1.8457031	16.499123
1.8481445	16.466936
1.8505859	16.479998
1.8530273	16.488508
1.8554688	16.377254
1.8579102	15.984176
1.8603516	15.281289
1.862793	14.492332
1.8652344	13.969438
1.8676758	13.917924
1.8701172	14.306999
1.8725586	15.053993
1.875	16.114801
1.8774414	17.342508
1.8798828	18.395088
1.8823242	18.862473
1.8847656	18.486147
1.887207	17.327826
1.8896484	15.843504
1.8920898	14.79357
1.8945312	14.838416
1.8969727	16.068834
1.8994141	18.175274
1.9018555	20.91246
1.9042969	24.106606
1.9067383	27.440346
1.9091797	30.437658
1.9116211	32.638107
1.9140625	33.76892
1.9165039	33.811863
1.9189453	32.97441
1.9213867	31.599558
1.9238281	30.051102
1.9262695	28.602116
1.9287109	27.368103
1.9311523	26.314224
1.9335938	25.329393
1.9360352	24.331177
1.9384766	23.34684
1.940918	22.494972
1.9433594	21.84323
1.9458008	21.27946
1.9482422	20.592838
1.9506836	19.708397
1.953125	18.800371
1.9555664	18.130733
1.9580078	17.776491
1.9604492	17.58386
1.9628906	17.365898
1.965332	17.033686
1.9677734	16.553003
1.9702148	15.897537
1.9726562	15.099424
1.9750977	14.291785
1.9775391	13.623432
1.9799805	13.100226
1.9824219	12.56187
1.9848633	11.886812
1.9873047	11.280375
1.9897461	11.372498
1.9921875	12.755226
1.9946289	15.309461
1.9970703	18.413935
1.9995117	21.50292
2.0019531	24.227901
2.0043945	26.399427
2.006836	27.916727
2.0092773	28.73806
2.0117188	28.870882
2.0141602	28.370068
2.0166016	27.342695
2.019043	25.943394
2.0214844	24.309465
2.0239258	22.467472
2.0263672	20.34181
2.0288086	17.93555
2.03125	15.543308
2.0336914	13.743505
2.0361328	12.982387
2.0385742	13.074448
2.0410156	13.410423
2.043457	13.547203
2.0458984	13.403138
2.0483398	13.148885
2.0507812	13.025024
2.0532227	13.146899
2.055664	13.401179
2.0581055	13.544924
2.0605469	13.409962
2.0629883	13.017897
2.0654297	12.541805
2.067871	12.177233
2.0703125	12.028022
2.072754	12.087626
2.0751953	12.290142
2.0776367	12.564383
2.0800781	12.846579
2.0825195	13.06798
2.084961	13.177911
2.0874023	13.236472
2.0898438	13.506243
2.0922852	14.355092
2.0947266	15.93326
2.097168	17.991177
2.0996094	20.089128
2.1020508	21.89742
2.1044922	23.322609
2.1069336	24.454765
2.109375	25.401234
2.1118164	26.128716
2.1142578	26.437534
2.1166992	26.082253
2.1191406	24.917227
2.121582	22.957296
2.1240234	20.351812
2.1264648	17.34854
2.1289062	14.30609
2.1313477	11.744363
2.133789	10.303273
2.1362305	10.360835
2.1386719	11.605878
2.1411133	13.372524
2.1435547	15.10056
2.145996	16.397322
2.1484375	17.01794
2.150879	16.875986
2.1533203	16.036552
2.1557617	14.683066
2.1582031	13.075429
2.1606445	11.495996
2.163086	10.156576
2.1655273	9.097313
2.1679688	8.188594
2.1704102	7.2745385
2.1728516	6.308048
2.175293	5.367324
2.1777344	4.582484
2.1801758	4.047288
2.1826172	3.7717443
2.1850586	3.7001843
2.1875	3.7604764
2.1899414	3.8891025
2.1923828	4.032661
2.1948242	4.150394
2.1972656	4.225525
2.199707	4.276913
2.2021484	4.3688717
2.2045898	4.6137214
2.2070312	5.1401315
2.2094727	6.0061355
2.211914	7.1327543
2.2143555	8.33354
2.2167969	9.403854
2.2192383	10.205309
2.2216797	10.715466
2.224121	11.016838
2.2265625	11.217587
2.229004	11.355761
2.2314453	11.382766
2.2338867	11.265395
2.2363281	11.112597
2.2387695	11.183993
2.241211	11.697855
2.2436523	12.61143
2.2460938	13.674789
2.2485352	14.670405
2.2509766	15.534531
2.253418	16.299051
2.2558594	16.983873
2.2583008	17.575634
2.2607422	18.078558
2.2631836	18.528399
2.265625	18.92881
2.2680664	19.202063
2.2705078	19.232431
2.2729492	18.957495
2.2753906	18.428984
2.277832	17.810875
2.2802734	17.300869
2.2827148	16.979208
2.2851562	16.704819
2.2875977	16.229074
2.290039	15.502301
2.2924805	14.935668
2.2949219	15.278687
2.2973633	16.922934
2.2998047	19.456278
2.302246	22.184292
2.3046875	24.721292
2.307129	27.098318
2.3095703	29.554062
2.3120117	32.24326
2.3144531	35.100544
2.3168945	37.935818
2.319336	40.616573
2.3217773	43.153744
2.3242188	45.621845
2.3266602	47.983902
2.3291016	49.990322
2.331543	51.261852
2.3339844	51.489635
2.3364258	50.58618
2.3388672	48.685345
2.3413086	46.02081
2.34375	42.80635
2.3461914	39.22661
2.3486328	35.538467
2.3510742	32.16324
2.3535156	29.593487
2.355957	28.06758
2.3583984	27.323532
2.3608398	26.825113
2.3632812	26.246729
2.3657227	25.665075
2.368164	25.309238
2.3706055	25.187344
2.3730469	25.039106
2.3754883	24.64459
2.3779297	24.079966
2.380371	23.638615
2.3828125	23.506008
2.385254	23.53866
2.3876953	23.393679
2.3901367	22.83007
2.3925781	21.877293
2.3950195	20.772665
2.397461	19.743376
2.3999023	18.815521
2.4023438	17.831438
2.4047852	16.646305
2.4072266	15.282024
2.409668	13.883515
2.4121094	12.531747
2.4145508	11.124977
2.4169922	9.47864
2.4194336	7.5296907
2.421875	5.445959
2.4243164	3.5975964
2.4267578	2.4706042
2.4291992	2.4150915
2.4316406	3.2485769
2.434082	4.697989
2.4365234	6.450654
2.4389648	8.013987
2.4414062	8.884109
2.4438477	8.763121
2.446289	7.734867
2.4487305	6.393057
