
X-Axis: Frequency (hz)
Y-Axis: Fourier Amplitude (cm/s)
Number of Data Sets: 4


DATASET #1

Name: FAS H1 (cm/s)
Num Points: 2044
Info: 

X, Y Data:
0.009765625	0.074486606
0.012207031	0.12845175
0.014648438	0.20802565
0.017089844	0.31516594
0.01953125	0.45026222
0.021972656	0.61922336
0.024414062	0.83268005
0.026855469	1.0956055
0.029296875	1.4064771
0.03173828	1.7719123
0.034179688	2.211894
0.036621094	2.7414963
0.0390625	3.3563504
0.041503906	4.0449963
0.043945312	4.8041005
0.04638672	5.6286383
0.048828125	6.493192
0.05126953	7.357001
0.053710938	8.186986
0.056152344	8.965854
0.05859375	9.679513
0.061035156	10.311235
0.06347656	10.854465
0.06591797	11.322018
0.068359375	11.735008
0.07080078	12.109728
0.07324219	12.462493
0.075683594	12.817382
0.078125	13.194323
0.080566406	13.592995
0.08300781	14.00118
0.08544922	14.417341
0.087890625	14.852895
0.09033203	15.312761
0.09277344	15.788671
0.095214844	16.278994
0.09765625	16.80369
0.10009766	17.387177
0.10253906	18.031088
0.10498047	18.714815
0.10742188	19.418417
0.10986328	20.131136
0.11230469	20.835442
0.11474609	21.494919
0.1171875	22.067808
0.11962891	22.53053
0.12207031	22.8835
0.12451172	23.138176
0.12695312	23.306658
0.12939453	23.402029
0.13183594	23.438046
0.13427734	23.42098
0.13671875	23.343815
0.13916016	23.191729
0.14160156	22.9495
0.14404297	22.595251
0.14648438	22.085941
0.14892578	21.360277
0.15136719	20.370388
0.1538086	19.11879
0.15625	17.667639
0.1586914	16.114023
0.16113281	14.558655
0.16357422	13.09728
0.16601562	11.828925
0.16845703	10.843811
0.17089844	10.176216
0.17333984	9.762287
0.17578125	9.449998
0.17822266	9.055677
0.18066406	8.4404335
0.18310547	7.6037455
0.18554688	6.7910376
0.18798828	6.516788
0.19042969	7.199433
0.1928711	8.659725
0.1953125	10.373919
0.1977539	11.881863
0.20019531	12.857897
0.20263672	13.095824
0.20507812	12.515538
0.20751953	11.176284
0.20996094	9.270227
0.21240234	7.087198
0.21484375	4.9614716
0.21728516	3.2146938
0.21972656	2.0980046
0.22216797	1.7298236
0.22460938	2.1132393
0.22705078	3.2134562
0.22949219	4.9010506
0.2319336	6.9742007
0.234375	9.203515
0.2368164	11.354591
0.23925781	13.213842
0.24169922	14.621917
0.24414062	15.49854
0.24658203	15.834513
0.24902344	15.645599
0.25146484	14.922297
0.25390625	13.624532
0.25634766	11.731727
0.25878906	9.309097
0.26123047	6.5596194
0.26367188	3.962639
0.26611328	2.9742482
0.2685547	4.4386415
0.2709961	6.1551857
0.2734375	6.959086
0.2758789	6.4292293
0.2783203	4.868943
0.28076172	4.732825
0.28320312	8.305271
0.28564453	13.221007
0.28808594	17.767664
0.29052734	20.966122
0.29296875	22.206963
0.29541016	21.258808
0.29785156	18.350697
0.30029297	14.324515
0.30273438	10.935273
0.30517578	10.498127
0.3076172	12.691509
0.3100586	15.113772
0.3125	16.539833
0.3149414	16.77648
0.3173828	16.008295
0.31982422	14.433003
0.32226562	12.17006
0.32470703	9.422863
0.32714844	6.9021454
0.32958984	6.3306174
0.33203125	8.229517
0.33447266	10.517185
0.33691406	11.633453
0.33935547	10.908457
0.34179688	8.349496
0.34423828	4.697492
0.3466797	2.9100156
0.3491211	5.7522926
0.3515625	8.52795
0.3540039	10.067303
0.3564453	10.601649
0.35888672	10.881448
0.36132812	11.570167
0.36376953	12.836462
0.36621094	14.687758
0.36865234	17.224112
0.37109375	20.206295
0.37353516	22.764153
0.37597656	23.748331
0.37841797	22.276173
0.38085938	18.113718
0.38330078	11.978439
0.3857422	7.05764
0.3881836	10.352397
0.390625	16.80555
0.3930664	21.520645
0.3955078	23.031588
0.39794922	21.092318
0.40039062	16.605034
0.40283203	11.92795
0.40527344	10.757009
0.40771484	13.106257
0.41015625	15.245623
0.41259766	15.621017
0.41503906	14.57965
0.41748047	13.271066
0.41992188	12.635115
0.42236328	12.694813
0.4248047	13.112409
0.4272461	14.011315
0.4296875	15.597249
0.4321289	17.3705
0.4345703	18.341492
0.43701172	17.781143
0.43945312	15.608829
0.44189453	12.347456
0.44433594	8.896646
0.44677734	6.467617
0.44921875	6.3234158
0.45166016	7.9046288
0.45410156	9.611906
0.45654297	10.559211
0.45898438	10.371447
0.46142578	8.9476595
0.4638672	6.4082794
0.4663086	3.2253807
0.46875	1.857216
0.4711914	4.250578
0.4736328	6.053741
0.47607422	6.7513566
0.47851562	6.948479
0.48095703	7.347333
0.48339844	7.7615166
0.48583984	7.5378747
0.48828125	6.761432
0.49072266	6.6962037
0.49316406	7.9883947
0.49560547	9.191575
0.49804688	8.8667755
0.5004883	6.573516
0.5029297	2.7048976
0.5053711	1.9131962
0.5078125	6.3095703
0.5102539	9.712209
0.5126953	11.591246
0.5151367	11.798547
0.5175781	10.626798
0.52001953	8.746465
0.52246094	7.0477657
0.52490234	6.373517
0.52734375	7.0229974
0.52978516	8.832371
0.53222656	11.581104
0.53466797	14.692359
0.5371094	17.269346
0.5395508	18.55949
0.5419922	18.309856
0.5444336	16.960886
0.546875	15.595866
0.5493164	15.115371
0.5517578	15.159149
0.5541992	14.687607
0.5566406	13.182817
0.55908203	10.830565
0.56152344	8.232249
0.56396484	6.120905
0.56640625	4.988776
0.56884766	4.836161
0.57128906	5.4791255
0.57373047	6.8186874
0.5761719	8.808077
0.5786133	11.351232
0.5810547	14.176038
0.5834961	16.933714
0.5859375	19.492533
0.5883789	21.950153
0.5908203	24.181013
0.5932617	25.618517
0.5957031	25.696627
0.59814453	24.35082
0.60058594	22.090294
0.60302734	19.65342
0.60546875	17.404951
0.60791016	15.08479
0.61035156	12.427916
0.61279297	9.855229
0.6152344	8.236001
0.6176758	7.713746
0.6201172	7.391367
0.6225586	6.5329275
0.625	5.0282145
0.6274414	3.1354456
0.6298828	1.1970147
0.6323242	1.4159784
0.6347656	4.104077
0.63720703	7.6248965
0.63964844	11.720622
0.64208984	15.956787
0.64453125	19.983887
0.64697266	23.752232
0.64941406	27.482542
0.65185547	31.403486
0.6542969	35.543144
0.6567383	39.788605
0.6591797	44.055527
0.6616211	48.33015
0.6640625	52.527462
0.6665039	56.30984
0.6689453	59.123913
0.6713867	60.490772
0.6738281	60.240143
0.67626953	58.453743
0.67871094	55.2392
0.68115234	50.581673
0.68359375	44.40356
0.68603516	36.769592
0.68847656	28.018675
0.69091797	18.691772
0.6933594	9.442773
0.6958008	2.8175297
0.6982422	8.396841
0.7006836	14.35017
0.703125	17.993563
0.7055664	18.75311
0.7080078	16.616976
0.7104492	12.397753
0.7128906	8.88843
0.71533203	11.249775
0.71777344	17.413782
0.72021484	23.24459
0.72265625	26.981646
0.72509766	27.831749
0.72753906	25.67162
0.72998047	21.058577
0.7324219	15.369629
0.7348633	11.439242
0.7373047	12.720338
0.7397461	17.274338
0.7421875	21.65485
0.7446289	24.466122
0.7470703	25.394215
0.7495117	24.678082
0.7519531	22.834202
0.75439453	20.640759
0.75683594	19.441908
0.75927734	20.780731
0.76171875	24.505209
0.76416016	28.617355
0.76660156	31.177195
0.76904297	31.202759
0.7714844	28.624987
0.7739258	23.96895
0.7763672	18.06624
0.7788086	11.918662
0.78125	6.7017326
0.7836914	3.8210526
0.7861328	3.3355033
0.7885742	2.6608107
0.7910156	0.9097431
0.79345703	2.4417772
0.79589844	6.028835
0.79833984	10.050594
0.80078125	14.373478
0.80322266	18.918505
0.80566406	23.467173
0.80810547	27.58373
0.8105469	30.71576
0.8129883	32.409977
0.8154297	32.49821
0.8178711	31.140644
0.8203125	28.717037
0.8227539	25.697386
0.8251953	22.64604
0.8276367	20.302795
0.8300781	19.42561
0.83251953	20.227802
0.83496094	22.069626
0.83740234	23.95124
0.83984375	25.091799
0.84228516	25.145115
0.84472656	24.18758
0.84716797	22.570269
0.8496094	20.663744
0.8520508	18.638872
0.8544922	16.500061
0.8569336	14.416595
0.859375	13.103765
0.8618164	13.553405
0.8642578	15.691167
0.8666992	18.225973
0.8691406	20.018023
0.87158203	20.862715
0.87402344	21.64467
0.87646484	23.81151
0.87890625	28.028568
0.88134766	33.55436
0.88378906	39.104294
0.88623047	43.667507
0.8886719	46.731304
0.8911133	48.228577
0.8935547	48.358696
0.8959961	47.3448
0.8984375	45.335873
0.9008789	42.60808
0.9033203	39.887745
0.9057617	38.381466
0.9082031	39.132267
0.91064453	42.031704
0.91308594	45.73419
0.91552734	48.46253
0.91796875	48.646217
0.92041016	45.292953
0.92285156	38.403614
0.92529297	29.554197
0.9277344	22.975658
0.9301758	24.485415
0.9326172	32.421787
0.9350586	41.155674
0.9375	47.908154
0.9399414	51.685642
0.9423828	52.31199
0.9448242	50.09501
0.9472656	45.580147
0.94970703	39.364937
0.95214844	32.24284
0.95458984	25.807613
0.95703125	22.87874
0.95947266	25.28543
0.96191406	31.373568
0.96435547	39.182743
0.9667969	47.88971
0.9692383	56.641674
0.9716797	64.06564
0.9741211	68.70459
0.9765625	69.58263
0.9790039	66.46492
0.9814453	59.871136
0.9838867	51.070793
0.9863281	42.113247
0.98876953	35.562622
0.99121094	33.15142
0.99365234	33.998882
0.99609375	35.629143
0.99853516	36.243042
1.0009766	35.210045
1.003418	32.699615
1.0058594	29.343538
1.0083008	25.907684
1.0107422	22.876917
1.0131836	20.223345
1.015625	17.634201
1.0180664	14.82498
1.0205078	11.549747
1.0229492	7.751031
1.0253906	5.275083
1.027832	8.624467
1.0302734	14.538169
1.0327148	20.086718
1.0351562	24.361483
1.0375977	27.224194
1.0400391	28.84259
1.0424805	29.352083
1.0449219	28.77618
1.0473633	27.118912
1.0498047	24.463537
1.0522461	21.12709
1.0546875	17.935547
1.0571289	16.192957
1.0595703	16.529152
1.0620117	17.993282
1.0644531	19.349308
1.0668945	20.060642
1.0693359	20.054977
1.0717773	19.372301
1.0742188	18.16697
1.0766602	16.935656
1.0791016	16.526958
1.081543	17.448017
1.0839844	19.120153
1.0864258	20.377035
1.0888672	20.349232
1.0913086	18.748695
1.09375	15.818956
1.0961914	12.664186
1.0986328	12.443397
1.1010742	17.705236
1.1035156	26.153257
1.105957	35.24958
1.1083984	43.478832
1.1108398	49.908077
1.1132812	54.020535
1.1157227	55.62336
1.1181641	54.729927
1.1206055	51.440792
1.1230469	45.923546
1.1254883	38.545883
1.1279297	30.07853
1.1303711	21.916628
1.1328125	16.478262
1.1352539	16.432257
1.1376953	20.466513
1.1401367	25.196646
1.1425781	28.805128
1.1450195	30.741316
1.1474609	31.353394
1.1499023	31.484968
1.1523438	31.688799
1.1547852	31.685032
1.1572266	30.728123
1.159668	28.326578
1.1621094	24.572851
1.1645508	20.332857
1.1669922	18.076683
1.1694336	21.48634
1.171875	30.39578
1.1743164	41.767075
1.1767578	53.1448
1.1791992	62.774143
1.1816406	69.55486
1.184082	73.12284
1.1865234	73.68236
1.1889648	71.58057
1.1914062	66.99444
1.1938477	60.02672
1.1962891	51.0526
1.1987305	40.896927
1.2011719	30.720797
1.2036133	21.892761
1.2060547	16.134605
1.2084961	14.857122
1.2109375	16.610304
1.2133789	18.678377
1.2158203	19.845648
1.2182617	20.051184
1.2207031	19.589619
1.2231445	18.571371
1.2255859	16.838612
1.2280273	14.373213
1.2304688	11.905842
1.2329102	11.237906
1.2353516	13.536772
1.237793	17.518955
1.2402344	21.555113
1.2426758	24.693712
1.2451172	26.610584
1.2475586	27.762264
1.25	29.318562
1.2524414	32.186737
1.2548828	35.894966
1.2573242	38.986027
1.2597656	40.268063
1.262207	39.54043
1.2646484	37.618896
1.2670898	35.859543
1.2695312	35.417065
1.2719727	36.72716
1.2744141	39.52753
1.2768555	43.045067
1.2792969	46.1337
1.2817383	47.609898
1.2841797	46.71821
1.2866211	43.38313
1.2890625	38.104008
1.2915039	31.647512
1.2939453	24.86909
1.2963867	18.914501
1.2988281	15.560575
1.3012695	15.937083
1.3037109	18.307735
1.3061523	20.314224
1.3085938	20.910786
1.3110352	20.05274
1.3134766	18.15009
1.315918	15.68049
1.3183594	13.008877
1.3208008	10.361919
1.3232422	7.825478
1.3256836	5.3557744
1.328125	3.1382654
1.3305664	3.402654
1.3330078	6.859348
1.3354492	11.415623
1.3378906	16.402046
1.340332	21.436972
1.3427734	26.211975
1.3452148	30.50215
1.3476562	34.16785
1.3500977	37.101337
1.3525391	39.159306
1.3549805	40.168926
1.3574219	40.02156
1.3598633	38.778534
1.3623047	36.675873
1.3647461	34.021225
1.3671875	31.084612
1.3696289	28.083378
1.3720703	25.249516
1.3745117	22.865295
1.3769531	21.134144
1.3793945	19.897968
1.3818359	18.551474
1.3842773	16.404285
1.3867188	13.167929
1.3891602	9.228388
1.3916016	5.9966855
1.394043	6.1902256
1.3964844	9.118943
1.3989258	12.398594
1.4013672	15.495328
1.4038086	18.53557
1.40625	21.684475
1.4086914	24.909847
1.4111328	27.986319
1.4135742	30.622362
1.4160156	32.588047
1.418457	33.818012
1.4208984	34.391266
1.4233398	34.318527
1.4257812	33.35096
1.4282227	31.167889
1.4306641	27.889542
1.4331055	24.532322
1.4355469	22.987383
1.4379883	24.712488
1.4404297	29.006506
1.4428711	33.93345
1.4453125	37.958385
1.4477539	40.36571
1.4501953	41.149048
1.4526367	40.74034
1.4550781	39.70878
1.4575195	38.563892
1.4599609	37.680817
1.4624023	37.27607
1.4648438	37.37456
1.4672852	37.792496
1.4697266	38.19786
1.472168	38.227474
1.4746094	37.61768
1.4770508	36.32595
1.4794922	34.61103
1.4819336	32.967033
1.484375	31.861393
1.4868164	31.44302
1.4892578	31.535414
1.4916992	31.940474
1.4941406	32.732937
1.496582	34.27133
1.4990234	36.906506
1.5014648	40.6358
1.5039062	45.04631
1.5063477	49.524998
1.5087891	53.4677
1.5112305	56.339233
1.5136719	57.694504
1.5161133	57.305874
1.5185547	55.32053
1.5209961	52.18434
1.5234375	48.264885
1.5258789	43.547688
1.5283203	37.790405
1.5307617	30.966146
1.5332031	23.571507
1.5356445	16.90176
1.5380859	13.84814
1.5405273	16.898172
1.5429688	23.314941
1.5454102	30.042524
1.5478516	35.6616
1.550293	39.617146
1.5527344	41.92492
1.5551758	42.9786
1.5576172	43.3676
1.5600586	43.801197
1.5625	45.008503
1.5649414	47.46194
1.5673828	51.156178
1.5698242	55.75467
1.5722656	60.83314
1.574707	65.887764
1.5771484	70.27967
1.5795898	73.35699
1.5820312	74.68087
1.5844727	74.12207
1.5869141	71.781364
1.5893555	67.85447
1.5917969	62.568497
1.5942383	56.204674
1.5966797	49.139874
1.5991211	41.901485
1.6015625	35.335037
1.6040039	30.759502
1.6064453	29.312622
1.6088867	30.438099
1.6113281	32.171227
1.6137695	33.050014
1.6162109	32.861378
1.6186523	32.204533
1.6210938	31.731802
1.6235352	31.657122
1.6259766	31.790909
1.628418	31.833448
1.6308594	31.5659
1.6333008	30.910088
1.6357422	29.953918
1.6381836	28.953115
1.640625	28.285522
1.6430664	28.38162
1.6455078	29.624578
1.6479492	32.177486
1.6503906	35.790115
1.652832	39.79725
1.6552734	43.362194
1.6577148	45.82129
1.6601562	46.923107
1.6625977	46.807278
1.6650391	45.7143
1.6674805	43.67481
1.6699219	40.510727
1.6723633	36.16252
1.6748047	30.994865
1.6772461	25.765884
1.6796875	21.223509
1.6821289	17.685862
1.6845703	15.243404
1.6870117	14.54552
1.6894531	16.540564
1.6918945	20.858543
1.6943359	26.135918
1.6967773	31.224646
1.6992188	35.431343
1.7016602	38.391285
1.7041016	39.950653
1.706543	40.115868
1.7089844	39.045635
1.7114258	37.010723
1.7138672	34.284527
1.7163086	31.036991
1.71875	27.363825
1.7211914	23.471727
1.7236328	19.849949
1.7260742	17.13334
1.7285156	15.555727
1.730957	14.643318
1.7333984	13.794193
1.7358398	12.915413
1.7382812	12.370001
1.7407227	12.5613
1.7431641	13.685988
1.7456055	15.700722
1.7480469	18.288515
1.7504883	20.972885
1.7529297	23.402725
1.7553711	25.488554
1.7578125	27.216007
1.7602539	28.3611
1.7626953	28.503557
1.7651367	27.37331
1.7675781	25.234581
1.7700195	23.015446
1.7724609	21.972101
1.7749023	22.81754
1.7773438	25.223354
1.7797852	28.419577
1.7822266	31.772345
1.784668	34.821587
1.7871094	37.276745
1.7895508	39.092144
1.7919922	40.397354
1.7944336	41.2284
1.796875	41.378666
1.7993164	40.599827
1.8017578	38.916164
1.8041992	36.654926
1.8066406	34.13218
1.809082	31.384405
1.8115234	28.343912
1.8139648	25.30326
1.8164062	23.114058
1.8188477	22.725697
1.8212891	24.34487
1.8237305	27.350883
1.8261719	30.926758
1.8286133	34.34868
1.8310547	36.969746
1.8334961	38.2674
1.8359375	37.947693
1.8383789	35.98385
1.8408203	32.558353
1.8432617	27.96132
1.8457031	22.519114
1.8481445	16.627659
1.8505859	11.01444
1.8530273	7.5998874
1.8554688	8.778856
1.8579102	12.035942
1.8603516	14.864772
1.862793	16.957205
1.8652344	18.826788
1.8676758	20.814808
1.8701172	22.63604
1.8725586	23.781761
1.875	24.108788
1.8774414	23.943289
1.8798828	23.703775
1.8823242	23.504925
1.8847656	23.19777
1.887207	22.71363
1.8896484	22.249401
1.8920898	22.152906
1.8945312	22.665466
1.8969727	23.742128
1.8994141	25.063982
1.9018555	26.20359
1.9042969	26.8427
1.9067383	26.956366
1.9091797	26.841846
1.9116211	26.879053
1.9140625	27.145866
1.9165039	27.297333
1.9189453	26.857315
1.9213867	25.539814
1.9238281	23.312286
1.9262695	20.290062
1.9287109	16.676857
1.9311523	12.822245
1.9335938	9.295187
1.9360352	6.852175
1.9384766	6.0586963
1.940918	6.5724726
1.9433594	7.6693726
1.9458008	9.029716
1.9482422	10.548233
1.9506836	12.113885
1.953125	13.574604
1.9555664	14.76571
1.9580078	15.569692
1.9604492	15.985851
1.9628906	16.172966
1.965332	16.416874
1.9677734	17.010077
1.9702148	18.108805
1.9726562	19.705301
1.9750977	21.71281
1.9775391	24.031069
1.9799805	26.539234
1.9824219	29.09469
1.9848633	31.583414
1.9873047	33.944756
1.9897461	36.08928
1.9921875	37.77373
1.9946289	38.61726
1.9970703	38.318886
1.9995117	36.908318
2.0019531	34.807255
2.0043945	32.64292
2.006836	31.018736
2.0092773	30.476086
2.0117188	31.468473
2.0141602	34.0275
2.0166016	37.504265
2.019043	40.908295
2.0214844	43.48476
2.0239258	45.01745
2.0263672	45.76755
2.0288086	46.16493
2.03125	46.46723
2.0336914	46.631027
2.0361328	46.460426
2.0385742	45.800156
2.0410156	44.53896
2.043457	42.493576
2.0458984	39.437035
2.0483398	35.38056
2.0507812	30.911026
2.0532227	27.26916
2.055664	25.787975
2.0581055	26.719755
2.0605469	29.00016
2.0629883	31.384533
2.0654297	33.151264
2.067871	34.0634
2.0703125	34.167465
2.072754	33.641464
2.0751953	32.698498
2.0776367	31.529816
2.0800781	30.2651
2.0825195	28.939806
2.084961	27.488588
2.0874023	25.80511
2.0898438	23.845406
2.0922852	21.706825
2.0947266	19.612656
2.097168	17.793262
2.0996094	16.341843
2.1020508	15.187688
2.1044922	14.269602
2.1069336	13.729983
2.109375	13.799417
2.1118164	14.365085
2.1142578	14.865303
2.1166992	14.769796
2.1191406	14.074546
2.121582	13.377857
2.1240234	13.339359
2.1264648	13.901221
2.1289062	14.445792
2.1313477	14.642214
2.133789	14.797684
2.1362305	15.511618
2.1386719	17.030231
2.1411133	19.073711
2.1435547	21.215239
2.145996	23.117815
2.1484375	24.474405
2.150879	24.943499
2.1533203	24.250841
2.1557617	22.380806
2.1582031	19.678984
2.1606445	16.742443
2.163086	14.120293
2.1655273	12.061998
2.1679688	10.676757
2.1704102	10.357163
2.1728516	11.575602
2.175293	14.121215
2.1777344	17.310291
2.1801758	20.609207
2.1826172	23.752802
2.1850586	26.614832
2.1875	29.075827
2.1899414	30.984352
2.1923828	32.223186
2.1948242	32.80959
2.1972656	32.925335
2.199707	32.7979
2.2021484	32.509563
2.2045898	31.929989
2.2070312	30.87802
2.2094727	29.349884
2.211914	27.594751
2.2143555	25.97746
2.2167969	24.746193
2.2192383	23.899384
2.2216797	23.22735
2.224121	22.43825
2.2265625	21.271666
2.229004	19.571968
2.2314453	17.317152
2.2338867	14.596663
2.2363281	11.562526
2.2387695	8.377451
2.241211	5.185141
2.2436523	2.1638255
2.2460938	1.6485004
2.2485352	4.4775014
2.2509766	7.4711876
2.253418	10.38867
2.2558594	13.101258
2.2583008	15.481731
2.2607422	17.416718
2.2631836	18.794024
2.265625	19.47824
2.2680664	19.324556
2.2705078	18.261711
2.2729492	16.411839
2.2753906	14.149214
2.277832	11.988765
2.2802734	10.283801
2.2827148	8.994642
2.2851562	7.930008
2.2875977	7.2150064
2.290039	7.219925
2.2924805	7.879978
2.2949219	8.642169
2.2973633	9.122254
2.2998047	9.3631315
2.302246	9.61899
2.3046875	9.971287
2.307129	10.186234
2.3095703	9.947697
2.3120117	9.121656
2.3144531	7.8283095
2.3168945	6.3624606
2.319336	5.0458255
2.3217773	4.0724783
2.3242188	3.4324226
2.3266602	3.034495
2.3291016	2.9256108
2.331543	3.2419372
2.3339844	3.8997602
2.3364258	4.625404
2.3388672	5.2078524
2.3413086	5.592766
2.34375	5.839049
2.3461914	6.0063887
2.3486328	6.0714593
2.3510742	5.9686966
2.3535156	5.7059584
2.355957	5.4304223
2.3583984	5.353962
2.3608398	5.5904293
2.3632812	6.122938
2.3657227	6.927387
2.368164	8.000507
2.3706055	9.275487
2.3730469	10.602835
2.3754883	11.834373
2.3779297	12.893869
2.380371	13.77131
2.3828125	14.464209
2.385254	14.933581
2.3876953	15.126004
2.3901367	15.04504
2.3925781	14.811241
2.3950195	14.638906
2.397461	14.713103
2.3999023	15.058377
2.4023438	15.541746
2.4047852	16.007374
2.4072266	16.379345
2.409668	16.643032
2.4121094	16.761341
2.4145508	16.632542
2.4169922	16.132603
2.4194336	15.189367
2.421875	13.834317
2.4243164	12.240873
2.4267578	10.781858
2.4291992	10.053036
2.4316406	10.540279
2.434082	12.032197
2.4365234	13.780392
2.4389648	15.103491
2.4414062	15.669784
2.4438477	15.564718
2.446289	15.222536
