
X-Axis: Frequency (hz)
Y-Axis: Fourier Amplitude (cm/s)
Number of Data Sets: 4


DATASET #1

Name: FAS H1 (cm/s)
Num Points: 2044
Info: 

X, Y Data:
0.009765625	0.26235896
0.012207031	0.35536277
0.014648438	0.40600535
0.017089844	0.38886845
0.01953125	0.333552
0.021972656	0.40036854
0.024414062	0.6690189
0.026855469	1.0084562
0.029296875	1.3013499
0.03173828	1.4718701
0.034179688	1.5056696
0.036621094	1.4644936
0.0390625	1.4461324
0.041503906	1.4865452
0.043945312	1.5358922
0.04638672	1.5597048
0.048828125	1.6002402
0.05126953	1.7133297
0.053710938	1.8744602
0.056152344	2.0191314
0.05859375	2.1707728
0.061035156	2.4771686
0.06347656	3.053
0.06591797	3.8336287
0.068359375	4.6671047
0.07080078	5.441637
0.07324219	6.117613
0.075683594	6.6949377
0.078125	7.1637855
0.080566406	7.4774923
0.08300781	7.5554333
0.08544922	7.3027287
0.087890625	6.643571
0.09033203	5.5899224
0.09277344	4.418046
0.095214844	4.0284367
0.09765625	5.296142
0.10009766	7.520453
0.10253906	9.733774
0.10498047	11.297836
0.10742188	11.77974
0.10986328	10.966273
0.11230469	8.938565
0.11474609	6.169951
0.1171875	3.8595207
0.11962891	4.049516
0.12207031	5.580391
0.12451172	6.403028
0.12695312	6.097627
0.12939453	5.262533
0.13183594	5.513889
0.13427734	7.675306
0.13671875	10.675908
0.13916016	13.648346
0.14160156	16.293383
0.14404297	18.624622
0.14648438	20.774937
0.14892578	22.849426
0.15136719	24.863384
0.1538086	26.781622
0.15625	28.604502
0.1586914	30.431826
0.16113281	32.46365
0.16357422	34.912754
0.16601562	37.843254
0.16845703	41.030098
0.17089844	43.948032
0.17333984	45.900528
0.17578125	46.21527
0.17822266	44.4294
0.18066406	40.409595
0.18310547	34.381268
0.18554688	26.886784
0.18798828	18.749197
0.19042969	11.293602
0.1928711	7.8036427
0.1953125	10.885365
0.1977539	15.617261
0.20019531	19.495003
0.20263672	22.039919
0.20507812	23.271215
0.20751953	23.385855
0.20996094	22.679647
0.21240234	21.555584
0.21484375	20.541159
0.21728516	20.197472
0.21972656	20.852219
0.22216797	22.3565
0.22460938	24.169924
0.22705078	25.675665
0.22949219	26.445427
0.2319336	26.358679
0.234375	25.594034
0.2368164	24.622458
0.23925781	24.368069
0.24169922	26.158642
0.24414062	30.592651
0.24658203	36.486805
0.24902344	41.635384
0.25146484	44.085716
0.25390625	42.93762
0.25634766	38.72875
0.25878906	33.415554
0.26123047	29.704685
0.26367188	29.262001
0.26611328	31.325869
0.2685547	34.26356
0.2709961	37.224022
0.2734375	40.011517
0.2758789	42.60045
0.2783203	44.9958
0.28076172	47.21224
0.28320312	49.129925
0.28564453	50.35368
0.28808594	50.30227
0.29052734	48.499767
0.29296875	44.86528
0.29541016	39.87153
0.29785156	34.553673
0.30029297	30.300264
0.30273438	28.194843
0.30517578	28.113256
0.3076172	28.84068
0.3100586	29.256617
0.3125	29.177698
0.3149414	29.468853
0.3173828	31.323795
0.31982422	34.946636
0.32226562	39.24097
0.32470703	42.800133
0.32714844	44.647133
0.32958984	44.23991
0.33203125	41.19113
0.33447266	35.179237
0.33691406	26.223747
0.33935547	15.175207
0.34179688	5.628563
0.34423828	10.782116
0.3466797	18.155878
0.3491211	21.152357
0.3515625	18.806961
0.3540039	11.860646
0.3564453	5.7472343
0.35888672	13.715936
0.36132812	23.418476
0.36376953	29.828518
0.36621094	31.905245
0.36865234	30.209324
0.37109375	26.18678
0.37353516	21.042929
0.37597656	15.086541
0.37841797	9.252829
0.38085938	9.907911
0.38330078	16.937881
0.3857422	22.595846
0.3881836	23.495853
0.390625	18.933226
0.3930664	11.720208
0.3955078	11.576408
0.39794922	18.291307
0.40039062	21.90368
0.40283203	19.56863
0.40527344	12.030436
0.40771484	2.8825204
0.41015625	8.572403
0.41259766	15.092347
0.41503906	17.93722
0.41748047	17.948654
0.41992188	16.911844
0.42236328	16.58859
0.4248047	18.782372
0.4272461	24.216726
0.4296875	30.65418
0.4321289	34.406742
0.4345703	32.68723
0.43701172	25.386686
0.43945312	17.88651
0.44189453	22.525263
0.44433594	35.296925
0.44677734	46.7849
0.44921875	53.779064
0.45166016	55.568203
0.45410156	52.726173
0.45654297	46.684982
0.45898438	39.19184
0.46142578	31.452982
0.4638672	23.732542
0.4663086	16.34679
0.46875	11.86027
0.4711914	13.948059
0.4736328	19.261332
0.47607422	24.441578
0.47851562	29.031614
0.48095703	32.624756
0.48339844	33.536625
0.48583984	29.728252
0.48828125	20.710888
0.49072266	10.555478
0.49316406	15.759801
0.49560547	28.566975
0.49804688	38.43077
0.5004883	43.173923
0.5029297	42.74316
0.5053711	38.48503
0.5078125	32.872868
0.5102539	28.840126
0.5126953	27.886902
0.5151367	28.400242
0.5175781	27.309841
0.52001953	22.42449
0.52246094	13.387452
0.52490234	4.47754
0.52734375	13.521473
0.52978516	23.642832
0.53222656	29.526493
0.53466797	30.65715
0.5371094	28.176458
0.5395508	23.711502
0.5419922	18.135439
0.5444336	11.244884
0.546875	3.8538616
0.5493164	10.270522
0.5517578	21.130842
0.5541992	29.566977
0.5566406	32.729847
0.55908203	29.350859
0.56152344	20.296225
0.56396484	8.540052
0.56640625	6.0378766
0.56884766	14.084908
0.57128906	18.177963
0.57373047	17.90403
0.5761719	14.965019
0.5786133	11.646243
0.5810547	9.587276
0.5834961	10.031648
0.5859375	13.929465
0.5883789	19.9839
0.5908203	25.773165
0.5932617	29.098778
0.5957031	28.853086
0.59814453	26.06265
0.60058594	24.172836
0.60302734	26.62872
0.60546875	33.586803
0.60791016	43.04623
0.61035156	51.606125
0.61279297	55.215927
0.6152344	52.43141
0.6176758	47.72052
0.6201172	48.708317
0.6225586	54.093716
0.625	55.643085
0.6274414	50.71388
0.6298828	44.28151
0.6323242	41.623634
0.6347656	40.008274
0.63720703	34.956882
0.63964844	27.278578
0.64208984	19.86538
0.64453125	12.79561
0.64697266	9.078944
0.64941406	17.015173
0.65185547	26.127234
0.6542969	30.164589
0.6567383	28.63321
0.6591797	24.706991
0.6616211	21.489635
0.6640625	18.365116
0.6665039	15.518239
0.6689453	18.098564
0.6713867	24.205713
0.6738281	26.718575
0.67626953	22.990353
0.67871094	16.0718
0.68115234	14.569003
0.68359375	19.155663
0.68603516	22.72889
0.68847656	26.034048
0.69091797	32.57966
0.6933594	40.882824
0.6958008	46.788303
0.6982422	48.273106
0.7006836	45.963253
0.703125	40.872406
0.7055664	32.275238
0.7080078	18.83929
0.7104492	4.9997263
0.7128906	20.326786
0.71533203	36.676975
0.71777344	47.35755
0.72021484	51.69876
0.72265625	50.23197
0.72509766	42.646225
0.72753906	28.232002
0.72998047	9.27135
0.7324219	16.946894
0.7348633	35.976486
0.7373047	48.766987
0.7397461	54.55883
0.7421875	55.564545
0.7446289	54.079426
0.7470703	50.711525
0.7495117	45.39981
0.7519531	39.188644
0.75439453	34.699745
0.75683594	35.017735
0.75927734	40.634556
0.76171875	48.55117
0.76416016	55.20033
0.76660156	58.456448
0.76904297	58.199238
0.7714844	55.847248
0.7739258	52.969254
0.7763672	50.02819
0.7788086	46.486904
0.78125	41.804207
0.7836914	36.042183
0.7861328	29.85441
0.7885742	24.214617
0.7910156	20.149065
0.79345703	18.588099
0.79589844	19.872791
0.79833984	23.115911
0.80078125	26.87506
0.80322266	30.159506
0.80566406	32.67862
0.80810547	34.53902
0.8105469	35.74526
0.8129883	36.06517
0.8154297	35.433834
0.8178711	34.13964
0.8203125	32.25762
0.8227539	29.268114
0.8251953	24.866058
0.8276367	20.220015
0.8300781	18.14919
0.83251953	19.852547
0.83496094	22.463734
0.83740234	23.003746
0.83984375	20.316423
0.84228516	14.783194
0.84472656	7.918181
0.84716797	3.7563212
0.8496094	7.77872
0.8520508	12.044086
0.8544922	14.311474
0.8569336	13.867281
0.859375	10.285856
0.8618164	3.5870821
0.8642578	6.506068
0.8666992	18.583117
0.8691406	31.385883
0.87158203	42.101635
0.87402344	47.78309
0.87646484	46.866356
0.87890625	40.14727
0.88134766	30.463478
0.88378906	21.602333
0.88623047	17.694168
0.8886719	20.395147
0.8911133	25.99845
0.8935547	30.980396
0.8959961	33.482544
0.8984375	32.116646
0.9008789	25.721586
0.9033203	14.813552
0.9057617	10.71622
0.9082031	24.475626
0.91064453	37.83903
0.91308594	45.080135
0.91552734	44.611897
0.91796875	37.35535
0.92041016	26.8877
0.92285156	21.321114
0.92529297	26.592167
0.9277344	33.362133
0.9301758	33.764362
0.9326172	25.46342
0.9350586	9.664439
0.9375	10.508224
0.9399414	30.532562
0.9423828	46.998535
0.9448242	57.518326
0.9472656	61.423416
0.94970703	59.646564
0.95214844	53.954716
0.95458984	45.82274
0.95703125	36.043972
0.95947266	26.378902
0.96191406	23.777212
0.96435547	33.708336
0.9667969	48.110325
0.9692383	59.718132
0.9716797	64.70356
0.9741211	61.63285
0.9765625	51.18731
0.9790039	35.464336
0.9814453	17.137415
0.9838867	8.544153
0.9863281	26.99634
0.98876953	46.532257
0.99121094	62.574757
0.99365234	72.01755
0.99609375	72.794304
0.99853516	64.750694
1.0009766	49.742935
1.003418	31.01072
1.0058594	12.323638
1.0083008	3.783231
1.0107422	13.309484
1.0131836	17.620712
1.015625	19.362633
1.0180664	22.709412
1.0205078	27.621769
1.0229492	30.58115
1.0253906	29.33589
1.027832	24.212774
1.0302734	17.377678
1.0327148	11.487969
1.0351562	8.543853
1.0375977	8.905625
1.0400391	11.152944
1.0424805	14.016198
1.0449219	17.469414
1.0473633	22.3723
1.0498047	28.455786
1.0522461	33.347603
1.0546875	34.188503
1.0571289	30.262133
1.0595703	26.017248
1.0620117	29.486198
1.0644531	38.111496
1.0668945	43.42552
1.0693359	41.5293
1.0717773	32.987038
1.0742188	21.8714
1.0766602	16.948507
1.0791016	23.218626
1.081543	31.65511
1.0839844	37.72937
1.0864258	40.261715
1.0888672	38.18021
1.0913086	30.47224
1.09375	17.77259
1.0961914	9.414095
1.0986328	21.899395
1.1010742	34.193302
1.1035156	38.946003
1.105957	34.46766
1.1083984	22.280777
1.1108398	7.5807796
1.1132812	12.762072
1.1157227	23.638927
1.1181641	27.892042
1.1206055	24.714401
1.1230469	15.912537
1.1254883	7.0923476
1.1279297	13.04422
1.1303711	23.258726
1.1328125	31.608236
1.1352539	37.32075
1.1376953	39.820374
1.1401367	38.687267
1.1425781	35.08698
1.1450195	33.953667
1.1474609	41.49963
1.1499023	56.047623
1.1523438	71.43935
1.1547852	83.04369
1.1572266	88.347115
1.159668	86.77297
1.1621094	79.35355
1.1645508	67.889305
1.1669922	53.929836
1.1694336	38.546036
1.171875	23.176447
1.1743164	10.965866
1.1767578	8.493297
1.1791992	10.832653
1.1816406	10.584015
1.184082	11.723961
1.1865234	18.343384
1.1889648	26.535318
1.1914062	32.768024
1.1938477	35.717316
1.1962891	35.57338
1.1987305	33.376858
1.2011719	30.36772
1.2036133	27.479519
1.2060547	25.146414
1.2084961	23.536936
1.2109375	23.048828
1.2133789	24.503616
1.2158203	28.496737
1.2182617	34.62663
1.2207031	41.543148
1.2231445	47.325336
1.2255859	49.913723
1.2280273	47.713528
1.2304688	40.23178
1.2329102	28.81351
1.2353516	19.299465
1.237793	24.127882
1.2402344	38.028473
1.2426758	50.932316
1.2451172	59.486584
1.2475586	63.165176
1.25	63.18908
1.2524414	61.47987
1.2548828	58.991646
1.2573242	54.679863
1.2597656	46.52707
1.262207	33.769184
1.2646484	19.73833
1.2670898	19.377981
1.2695312	33.37001
1.2719727	45.665726
1.2744141	51.07218
1.2768555	48.417072
1.2792969	39.00165
1.2817383	26.638306
1.2841797	19.060543
1.2866211	22.560009
1.2890625	28.487192
1.2915039	30.193014
1.2939453	26.762558
1.2963867	20.237804
1.2988281	15.398514
1.3012695	17.343597
1.3037109	22.971907
1.3061523	27.917015
1.3085938	31.055185
1.3110352	32.58007
1.3134766	32.707123
1.315918	31.128098
1.3183594	27.19249
1.3208008	20.587177
1.3232422	12.81848
1.3256836	12.347232
1.328125	22.164145
1.3305664	32.727707
1.3330078	39.973595
1.3354492	42.34093
1.3378906	40.04383
1.340332	35.13428
1.3427734	31.111023
1.3452148	30.708414
1.3476562	32.911823
1.3500977	34.85267
1.3525391	35.177715
1.3549805	34.36086
1.3574219	33.511555
1.3598633	33.199253
1.3623047	33.403404
1.3647461	34.44015
1.3671875	37.30997
1.3696289	42.665386
1.3720703	49.738464
1.3745117	56.676617
1.3769531	61.471775
1.3793945	62.57492
1.3818359	59.21232
1.3842773	51.535324
1.3867188	40.61065
1.3891602	28.32239
1.3916016	17.691477
1.394043	14.403335
1.3964844	19.736801
1.3989258	26.916721
1.4013672	32.915375
1.4038086	36.77441
1.40625	38.181892
1.4086914	37.700127
1.4111328	37.155945
1.4135742	38.88321
1.4160156	43.40853
1.418457	48.802036
1.4208984	52.885937
1.4233398	55.036633
1.4257812	56.331364
1.4282227	58.12508
1.4306641	60.11922
1.4331055	60.244915
1.4355469	56.4164
1.4379883	47.990784
1.4404297	36.109592
1.4428711	23.466093
1.4453125	14.658051
1.4477539	14.856997
1.4501953	19.636192
1.4526367	24.432564
1.4550781	29.572899
1.4575195	35.79409
1.4599609	42.20373
1.4624023	46.94268
1.4648438	48.65717
1.4672852	47.237736
1.4697266	43.529278
1.472168	38.34749
1.4746094	31.848837
1.4770508	24.509033
1.4794922	20.054535
1.4819336	24.36086
1.484375	33.73641
1.4868164	41.554848
1.4892578	44.757652
1.4916992	43.219395
1.4941406	39.102528
1.496582	35.554905
1.4990234	34.31667
1.5014648	34.501938
1.5039062	34.634926
1.5063477	34.62454
1.5087891	35.58422
1.5112305	38.531216
1.5136719	43.317024
1.5161133	48.660854
1.5185547	52.817127
1.5209961	54.2858
1.5234375	52.506992
1.5258789	48.396893
1.5283203	44.30708
1.5307617	42.682884
1.5332031	43.720123
1.5356445	45.232655
1.5380859	45.02976
1.5405273	42.296963
1.5429688	37.44493
1.5454102	31.4524
1.5478516	25.23463
1.550293	19.298841
1.5527344	13.80407
1.5551758	8.89103
1.5576172	4.9978447
1.5600586	2.9181333
1.5625	2.6209927
1.5649414	3.9049056
1.5673828	8.145698
1.5698242	14.630299
1.5722656	21.70558
1.574707	27.407337
1.5771484	29.882523
1.5795898	27.938618
1.5820312	21.431795
1.5844727	11.367185
1.5869141	2.7179337
1.5893555	13.093793
1.5917969	22.49328
1.5942383	28.120785
1.5966797	29.356445
1.5991211	26.71095
1.6015625	21.573416
1.6040039	15.630695
1.6064453	10.133805
1.6088867	5.4310527
1.6113281	1.6365132
1.6137695	3.6906576
1.6162109	7.1614614
1.6186523	9.082771
1.6210938	8.241253
1.6235352	3.924557
1.6259766	3.6883297
1.628418	13.379026
1.6308594	23.155596
1.6333008	30.786871
1.6357422	34.428043
1.6381836	33.097923
1.640625	26.899342
1.6430664	17.004047
1.6455078	5.82079
1.6479492	7.4444194
1.6503906	15.770582
1.652832	19.99987
1.6552734	19.054747
1.6577148	13.269023
1.6601562	4.165522
1.6625977	6.2833085
1.6650391	15.278037
1.6674805	21.04154
1.6699219	22.360182
1.6723633	18.986176
1.6748047	11.973188
1.6772461	8.173332
1.6796875	17.658325
1.6821289	29.864494
1.6845703	40.477646
1.6870117	48.328728
1.6894531	53.63273
1.6918945	57.227238
1.6943359	59.574783
1.6967773	60.382835
1.6992188	59.241592
1.7016602	56.60111
1.7041016	54.261852
1.706543	54.668243
1.7089844	58.75673
1.7114258	64.61382
1.7138672	68.83259
1.7163086	68.429184
1.71875	61.943092
1.7211914	50.144302
1.7236328	36.938755
1.7260742	30.523157
1.7285156	35.696198
1.730957	44.31206
1.7333984	49.303867
1.7358398	48.363003
1.7382812	41.520657
1.7407227	30.020382
1.7431641	16.086926
1.7456055	6.738992
1.7480469	15.587234
1.7504883	24.505814
1.7529297	28.594389
1.7553711	27.245546
1.7578125	21.030176
1.7602539	11.303553
1.7626953	3.3423164
1.7651367	13.683786
1.7675781	24.028582
1.7700195	31.071907
1.7724609	33.56127
1.7749023	31.219084
1.7773438	24.881346
1.7797852	16.560078
1.7822266	10.216044
1.784668	11.34719
1.7871094	15.798355
1.7895508	18.794033
1.7919922	19.708885
1.7944336	19.263067
1.796875	18.42566
1.7993164	17.78079
1.8017578	17.37288
1.8041992	17.054659
1.8066406	16.845688
1.809082	16.945375
1.8115234	17.443213
1.8139648	18.038088
1.8164062	18.145515
1.8188477	17.35212
1.8212891	15.914306
1.8237305	15.057512
1.8261719	16.292301
1.8286133	19.490519
1.8310547	22.95668
1.8334961	25.04165
1.8359375	24.782633
1.8383789	22.022142
1.8408203	17.382345
1.8432617	12.070836
1.8457031	7.508593
1.8481445	4.6820054
1.8505859	3.452084
1.8530273	4.2798047
1.8554688	7.5661454
1.8579102	11.565136
1.8603516	14.67186
1.862793	15.834129
1.8652344	14.792111
1.8676758	12.348234
1.8701172	10.501831
1.8725586	11.049572
1.875	12.907053
1.8774414	14.302954
1.8798828	15.064948
1.8823242	16.064941
1.8847656	17.69074
1.887207	19.202682
1.8896484	19.77795
1.8920898	19.516075
1.8945312	19.465866
1.8969727	20.70094
1.8994141	23.337973
1.9018555	26.840872
1.9042969	30.69504
1.9067383	34.323692
1.9091797	36.817867
1.9116211	37.092808
1.9140625	34.38823
1.9165039	28.819658
1.9189453	22.059755
1.9213867	18.660925
1.9238281	23.210766
1.9262695	32.225273
1.9287109	40.924503
1.9311523	46.698887
1.9335938	48.16978
1.9360352	44.999752
1.9384766	37.98808
1.940918	29.174337
1.9433594	22.025557
1.9458008	20.307396
1.9482422	22.948734
1.9506836	25.526253
1.953125	25.771818
1.9555664	23.470854
1.9580078	19.431265
1.9604492	14.919251
1.9628906	11.492582
1.965332	10.747583
1.9677734	12.619723
1.9702148	15.343038
1.9726562	17.454454
1.9750977	18.067703
1.9775391	16.840328
1.9799805	14.45931
1.9824219	13.646348
1.9848633	17.387676
1.9873047	23.964315
1.9897461	30.088898
1.9921875	33.569668
1.9946289	33.464157
1.9970703	30.512268
1.9995117	27.769936
2.0019531	29.286907
2.0043945	34.875317
2.006836	40.337757
2.0092773	42.24593
2.0117188	39.201946
2.0141602	31.510393
2.0166016	20.615473
2.019043	8.50354
2.0214844	3.421936
2.0239258	12.485401
2.0263672	18.466873
2.0288086	20.851194
2.03125	20.082829
2.0336914	17.40113
2.0361328	14.521456
2.0385742	12.768393
2.0410156	12.159254
2.043457	12.073812
2.0458984	12.423426
2.0483398	13.329503
2.0507812	14.387314
2.0532227	14.779227
2.055664	13.773543
2.0581055	11.016694
2.0605469	6.709382
2.0629883	3.156739
2.0654297	7.265348
2.067871	12.931735
2.0703125	17.30225
2.072754	19.489462
2.0751953	19.270172
2.0776367	17.064152
2.0800781	13.861281
2.0825195	11.108186
2.084961	10.200811
2.0874023	11.012963
2.0898438	12.066738
2.0922852	12.283344
2.0947266	11.326599
2.097168	9.379867
2.0996094	7.0271473
2.1020508	5.2634444
2.1044922	5.0477495
2.1069336	5.8084617
2.109375	6.3683934
2.1118164	6.3024054
2.1142578	5.809671
2.1166992	5.514464
2.1191406	5.9659786
2.121582	6.8862476
2.1240234	7.5261087
2.1264648	7.37404
2.1289062	6.364036
2.1313477	4.880024
2.133789	3.6443024
2.1362305	3.1262896
2.1386719	2.7251513
2.1411133	1.7660035
2.1435547	1.7964079
2.145996	4.346724
2.1484375	7.288858
2.150879	9.659043
2.1533203	10.9258
2.1557617	11.063299
2.1582031	10.722415
2.1606445	11.040253
2.163086	12.599604
2.1655273	14.744469
2.1679688	16.396948
2.1704102	16.735025
2.1728516	15.328135
2.175293	12.264438
2.1777344	8.646065
2.1801758	7.7415056
2.1826172	11.035245
2.1850586	14.976126
2.1875	17.579277
2.1899414	18.594152
2.1923828	18.882
2.1948242	19.773731
2.1972656	21.793644
2.199707	24.050734
2.2021484	25.146173
2.2045898	24.122326
2.2070312	20.784178
2.2094727	15.645672
2.211914	9.672325
2.2143555	3.9364407
2.2167969	1.3971955
2.2192383	4.8268538
2.2216797	7.532377
2.224121	9.646513
2.2265625	11.220669
2.229004	11.949658
2.2314453	11.4131
2.2338867	9.378412
2.2363281	6.0086417
2.2387695	2.3420079
2.241211	3.8490584
2.2436523	7.314869
2.2460938	9.318773
2.2485352	9.1462555
2.2509766	6.8239584
2.253418	4.3425922
2.2558594	7.581262
2.2583008	13.710946
2.2607422	19.404497
2.2631836	23.352161
2.265625	24.948118
2.2680664	24.22048
2.2705078	21.80306
2.2729492	18.860031
2.2753906	16.834534
2.277832	16.600159
2.2802734	17.559158
2.2827148	18.360668
2.2851562	18.06955
2.2875977	16.44987
2.290039	13.795272
2.2924805	10.648988
2.2949219	7.5244155
2.2973633	4.7259283
2.2998047	2.5387943
2.302246	2.6915143
2.3046875	5.224538
2.307129	8.177771
2.3095703	10.772515
2.3120117	12.451124
2.3144531	12.836548
2.3168945	11.821903
2.319336	9.665281
2.3217773	7.18621
2.3242188	6.1157317
2.3266602	7.540029
2.3291016	9.875031
2.331543	11.808128
2.3339844	12.994162
2.3364258	13.543973
2.3388672	13.707571
2.3413086	13.673106
2.34375	13.489367
2.3461914	13.100347
2.3486328	12.42281
2.3510742	11.40944
2.3535156	10.080087
2.355957	8.5283
2.3583984	6.907244
2.3608398	5.398671
2.3632812	4.1694584
2.3657227	3.3408575
2.368164	3.0169444
2.3706055	3.3178003
2.3730469	4.218829
2.3754883	5.4528847
2.3779297	6.6297417
2.380371	7.3437
2.3828125	7.2799563
2.385254	6.361587
2.3876953	4.9447246
2.3901367	4.080298
2.3925781	4.741529
2.3950195	6.0032253
2.397461	6.7560105
2.3999023	6.72198
2.4023438	6.3932796
2.4047852	6.9143534
2.4072266	8.888107
2.409668	11.570306
2.4121094	13.914364
2.4145508	15.124586
2.4169922	14.754691
2.4194336	12.800603
2.421875	9.802958
2.4243164	7.114942
2.4267578	7.009082
2.4291992	9.458024
2.4316406	12.301825
2.434082	14.484559
2.4365234	15.77124
2.4389648	16.365515
2.4414062	16.655136
2.4438477	16.84916
2.446289	16.785526
2.4487305	16.198854
