
X-Axis: Frequency (hz)
Y-Axis: Fourier Amplitude (cm/s)
Number of Data Sets: 4


DATASET #1

Name: FAS H1 (cm/s)
Num Points: 2044
Info: 

X, Y Data:
0.009765625	0.269596
0.012207031	0.3928809
0.014648438	0.4916257
0.017089844	0.52812386
0.01953125	0.4742094
0.021972656	0.35072666
0.024414062	0.3659843
0.026855469	0.6728448
0.029296875	1.0663297
0.03173828	1.411144
0.034179688	1.6241488
0.036621094	1.6653669
0.0390625	1.5532933
0.041503906	1.3624336
0.043945312	1.1802921
0.04638672	1.0336566
0.048828125	0.86885756
0.05126953	0.6278674
0.053710938	0.31971154
0.056152344	0.13258624
0.05859375	0.30252603
0.061035156	0.34043217
0.06347656	0.15254761
0.06591797	0.40300095
0.068359375	1.1194216
0.07080078	2.0086775
0.07324219	2.9811392
0.075683594	3.9594457
0.078125	4.8848867
0.080566406	5.72064
0.08300781	6.450283
0.08544922	7.069065
0.087890625	7.5657525
0.09033203	7.9016123
0.09277344	7.998428
0.095214844	7.743009
0.09765625	7.0075116
0.10009766	5.68275
0.10253906	3.7262487
0.10498047	1.3110844
0.10742188	2.1151538
0.10986328	5.1752553
0.11230469	8.055199
0.11474609	10.311881
0.1171875	11.620164
0.11962891	11.801007
0.12207031	10.868468
0.12451172	9.053046
0.12695312	6.810983
0.12939453	4.880479
0.13183594	4.2318926
0.13427734	4.8766255
0.13671875	5.7044964
0.13916016	6.047512
0.14160156	5.7204056
0.14404297	4.751236
0.14648438	3.2695806
0.14892578	1.5533484
0.15136719	1.6290997
0.1538086	4.03915
0.15625	7.036585
0.1586914	10.466538
0.16113281	14.205383
0.16357422	18.001083
0.16601562	21.489079
0.16845703	24.26774
0.17089844	25.99617
0.17333984	26.486258
0.17578125	25.769447
0.17822266	24.12433
0.18066406	22.05282
0.18310547	20.185797
0.18554688	19.086275
0.18798828	18.988247
0.19042969	19.707243
0.1928711	20.86509
0.1953125	22.165293
0.1977539	23.484024
0.20019531	24.820068
0.20263672	26.210304
0.20507812	27.660795
0.20751953	29.098295
0.20996094	30.345348
0.21240234	31.134176
0.21484375	31.1656
0.21728516	30.197536
0.21972656	28.133308
0.22216797	25.077013
0.22460938	21.326426
0.22705078	17.292986
0.22949219	13.397204
0.2319336	10.102132
0.234375	8.26666
0.2368164	8.903461
0.23925781	11.254938
0.24169922	13.483427
0.24414062	14.226105
0.24658203	12.879722
0.24902344	10.150618
0.25146484	9.442096
0.25390625	13.525693
0.25634766	18.980457
0.25878906	22.62451
0.26123047	22.874643
0.26367188	19.323315
0.26611328	12.750175
0.2685547	6.2054195
0.2709961	8.986552
0.2734375	15.482785
0.2758789	19.477922
0.2783203	19.651943
0.28076172	15.9512
0.28320312	9.150054
0.28564453	0.59715396
0.28808594	8.621935
0.29052734	17.194004
0.29296875	24.745317
0.29541016	31.324236
0.29785156	37.19327
0.30029297	42.440426
0.30273438	46.817207
0.30517578	49.898396
0.3076172	51.368122
0.3100586	51.194687
0.3125	49.610107
0.3149414	46.968414
0.3173828	43.61321
0.31982422	39.84116
0.32226562	35.964634
0.32470703	32.43341
0.32714844	29.947205
0.32958984	29.36583
0.33203125	31.187117
0.33447266	35.03564
0.33691406	39.903458
0.33935547	44.699673
0.34179688	48.48542
0.34423828	50.473858
0.3466797	50.027424
0.3491211	46.763313
0.3515625	40.782475
0.3540039	33.028503
0.3564453	25.900879
0.35888672	23.541933
0.36132812	27.681717
0.36376953	34.581474
0.36621094	40.634464
0.36865234	44.04241
0.37109375	43.981205
0.37353516	40.189068
0.37597656	32.974632
0.37841797	23.586967
0.38085938	15.789708
0.38330078	17.574541
0.3857422	26.796463
0.3881836	36.16188
0.390625	43.075863
0.3930664	47.13395
0.3955078	49.09941
0.39794922	49.902752
0.40039062	49.366123
0.40283203	45.876495
0.40527344	37.51558
0.40771484	23.550251
0.41015625	6.659126
0.41259766	18.224092
0.41503906	37.93279
0.41748047	53.530056
0.41992188	62.531406
0.42236328	64.22611
0.4248047	59.56654
0.4272461	50.785213
0.4296875	40.731117
0.4321289	31.947338
0.4345703	25.458113
0.43701172	20.15301
0.43945312	14.223764
0.44189453	7.588076
0.44433594	6.752185
0.44677734	13.25941
0.44921875	18.688763
0.45166016	20.905508
0.45410156	19.752346
0.45654297	16.109875
0.45898438	11.204758
0.46142578	6.150755
0.4638672	3.5961592
0.4663086	6.29731
0.46875	8.326768
0.4711914	7.2809315
0.4736328	5.064152
0.47607422	9.883691
0.47851562	17.277794
0.48095703	21.936607
0.48339844	22.100912
0.48583984	19.915064
0.48828125	21.65985
0.49072266	28.826187
0.49316406	35.907814
0.49560547	39.08509
0.49804688	37.385197
0.5004883	31.478071
0.5029297	22.798973
0.5053711	13.847479
0.5078125	10.832737
0.5102539	15.563015
0.5126953	19.48213
0.5151367	19.424644
0.5175781	16.296436
0.52001953	14.307613
0.52246094	16.968433
0.52490234	20.949383
0.52734375	22.889084
0.52978516	22.87328
0.53222656	23.222584
0.53466797	25.495028
0.5371094	28.504087
0.5395508	30.467384
0.5419922	30.885548
0.5444336	30.258192
0.546875	29.050554
0.5493164	27.172987
0.5517578	24.41414
0.5541992	21.150963
0.5566406	18.569227
0.55908203	17.922613
0.56152344	19.034575
0.56396484	20.401096
0.56640625	20.790304
0.56884766	20.037674
0.57128906	18.993645
0.57373047	18.602222
0.5761719	18.5182
0.5786133	17.49804
0.5810547	15.863521
0.5834961	17.74547
0.5859375	25.770061
0.5883789	36.1173
0.5908203	44.57831
0.5932617	48.883442
0.5957031	49.178055
0.59814453	47.818356
0.60058594	47.533897
0.60302734	48.784443
0.60546875	49.70286
0.60791016	48.371326
0.61035156	44.027298
0.61279297	37.11431
0.6152344	29.61695
0.6176758	25.656073
0.6201172	28.163086
0.6225586	33.647392
0.625	37.431892
0.6274414	37.477283
0.6298828	33.923576
0.6323242	28.240496
0.6347656	22.441095
0.63720703	18.781664
0.63964844	19.460976
0.64208984	23.963627
0.64453125	29.019438
0.64697266	31.765785
0.64941406	30.939222
0.65185547	27.32867
0.6542969	24.757977
0.6567383	29.37152
0.6591797	41.755257
0.6616211	57.4346
0.6640625	72.41275
0.6665039	83.59245
0.6689453	88.831406
0.6713867	87.36794
0.6738281	80.18887
0.67626953	69.965614
0.67871094	59.988033
0.68115234	52.056057
0.68359375	45.632164
0.68603516	40.230606
0.68847656	37.296368
0.69091797	37.72198
0.6933594	39.598354
0.6958008	40.973522
0.6982422	41.94747
0.7006836	43.772522
0.703125	47.359905
0.7055664	52.428947
0.7080078	57.44725
0.7104492	60.51812
0.7128906	60.868313
0.71533203	59.76336
0.71777344	59.354244
0.72021484	59.85101
0.72265625	59.14311
0.72509766	55.753773
0.72753906	50.47786
0.72998047	44.7804
0.7324219	38.59254
0.7348633	30.956924
0.7373047	22.484901
0.7397461	16.790365
0.7421875	17.734335
0.7446289	21.658665
0.7470703	23.635763
0.7495117	22.145473
0.7519531	17.94637
0.75439453	12.751587
0.75683594	7.6747627
0.75927734	2.8679461
0.76171875	1.3081295
0.76416016	3.0254557
0.76660156	2.3805747
0.76904297	7.4399886
0.7714844	16.561749
0.7739258	25.482187
0.7763672	31.24637
0.7788086	32.50258
0.78125	29.852417
0.7836914	24.887722
0.7861328	18.777376
0.7885742	13.122049
0.7910156	14.523628
0.79345703	24.373554
0.79589844	35.721237
0.79833984	44.748955
0.80078125	49.81363
0.80322266	50.865932
0.80566406	48.831394
0.80810547	44.62471
0.8105469	38.68997
0.8129883	31.646545
0.8154297	25.203186
0.8178711	21.662052
0.8203125	20.984468
0.8227539	20.205173
0.8251953	17.190105
0.8276367	12.801182
0.8300781	12.452085
0.83251953	19.034092
0.83496094	27.49705
0.83740234	34.731426
0.83984375	39.36167
0.84228516	40.753178
0.84472656	39.03837
0.84716797	35.31793
0.8496094	31.43091
0.8520508	28.991116
0.8544922	28.268126
0.8569336	28.386599
0.859375	28.615984
0.8618164	29.061272
0.8642578	30.315277
0.8666992	32.362923
0.8691406	33.979233
0.87158203	33.57709
0.87402344	30.400383
0.87646484	24.904589
0.87890625	18.26591
0.88134766	11.542234
0.88378906	5.2652736
0.88623047	2.1556199
0.8886719	6.9175334
0.8911133	11.661508
0.8935547	16.020535
0.8959961	20.716806
0.8984375	26.6407
0.9008789	34.06599
0.9033203	42.049305
0.9057617	48.6358
0.9082031	51.889595
0.91064453	51.12484
0.91308594	47.62354
0.91552734	44.294216
0.91796875	43.81843
0.92041016	46.299713
0.92285156	49.5335
0.92529297	51.058167
0.9277344	49.1559
0.9301758	43.23921
0.9326172	34.560116
0.9350586	27.457575
0.9375	28.273895
0.9399414	36.11877
0.9423828	45.465393
0.9448242	54.35536
0.9472656	63.226555
0.94970703	72.45874
0.95214844	81.35117
0.95458984	88.46312
0.95703125	92.18718
0.95947266	91.12852
0.96191406	84.617966
0.96435547	73.326164
0.9667969	59.368885
0.9692383	45.444748
0.9716797	33.376125
0.9741211	23.314138
0.9765625	14.484246
0.9790039	6.492428
0.9814453	3.4553962
0.9838867	9.525326
0.9863281	15.140283
0.98876953	19.217712
0.99121094	22.121449
0.99365234	24.697708
0.99609375	27.12601
0.99853516	28.964981
1.0009766	30.354961
1.003418	32.110188
1.0058594	34.28116
1.0083008	35.564907
1.0107422	34.439445
1.0131836	30.140427
1.015625	22.722666
1.0180664	12.818213
1.0205078	2.2112243
1.0229492	10.169864
1.0253906	19.40221
1.027832	25.076878
1.0302734	26.363482
1.0327148	23.681862
1.0351562	18.603
1.0375977	13.532882
1.0400391	11.283936
1.0424805	12.741368
1.0449219	15.855603
1.0473633	19.249071
1.0498047	22.480293
1.0522461	25.030567
1.0546875	26.063366
1.0571289	24.80012
1.0595703	21.065151
1.0620117	15.906169
1.0644531	12.729046
1.0668945	15.272799
1.0693359	20.242527
1.0717773	23.497362
1.0742188	24.315676
1.0766602	26.263376
1.0791016	34.820473
1.081543	49.13889
1.0839844	63.79531
1.0864258	73.821106
1.0888672	76.160995
1.0913086	70.23891
1.09375	57.974155
1.0961914	43.111137
1.0986328	29.976927
1.1010742	21.475023
1.1035156	16.930025
1.105957	14.617958
1.1083984	15.936901
1.1108398	20.537241
1.1132812	24.726328
1.1157227	26.072666
1.1181641	24.398937
1.1206055	21.661236
1.1230469	21.434439
1.1254883	25.49462
1.1279297	31.532885
1.1303711	36.7464
1.1328125	39.626144
1.1352539	39.80705
1.1376953	37.9054
1.1401367	35.37766
1.1425781	33.795204
1.1450195	33.389526
1.1474609	32.56979
1.1499023	29.373835
1.1523438	22.946222
1.1547852	14.010066
1.1572266	4.812024
1.159668	4.3008127
1.1621094	7.8020782
1.1645508	7.042423
1.1669922	4.048099
1.1694336	8.113077
1.171875	15.309792
1.1743164	20.961746
1.1767578	23.686594
1.1791992	23.572168
1.1816406	21.94419
1.184082	20.47922
1.1865234	19.574703
1.1889648	18.011595
1.1914062	14.615543
1.1938477	9.435357
1.1962891	4.5030384
1.1987305	6.814002
1.2011719	12.626537
1.2036133	18.084948
1.2060547	22.533447
1.2084961	25.376717
1.2109375	25.863623
1.2133789	23.461002
1.2158203	18.325874
1.2182617	11.588605
1.2207031	5.877375
1.2231445	6.2100763
1.2255859	8.918842
1.2280273	9.90595
1.2304688	9.498532
1.2329102	9.147349
1.2353516	9.416932
1.237793	9.348176
1.2402344	8.044869
1.2426758	5.63946
1.2451172	4.3524947
1.2475586	7.6447277
1.25	13.224583
1.2524414	19.415642
1.2548828	25.368752
1.2573242	30.24752
1.2597656	33.293407
1.262207	34.074028
1.2646484	32.640316
1.2670898	29.450638
1.2695312	25.097994
1.2719727	20.062664
1.2744141	14.748396
1.2768555	10.213973
1.2792969	9.931764
1.2817383	15.280301
1.2841797	22.666878
1.2866211	29.863913
1.2890625	35.619244
1.2915039	39.15739
1.2939453	40.289173
1.2963867	39.558235
1.2988281	38.148212
1.3012695	37.39952
1.3037109	38.16996
1.3061523	40.585278
1.3085938	44.272694
1.3110352	48.57676
1.3134766	52.605003
1.315918	55.348286
1.3183594	55.943356
1.3208008	53.92631
1.3232422	49.32225
1.3256836	42.579037
1.328125	34.44755
1.3305664	25.902214
1.3330078	18.243431
1.3354492	13.586579
1.3378906	13.956777
1.340332	17.340076
1.3427734	20.600918
1.3452148	22.465467
1.3476562	23.169046
1.3500977	24.161467
1.3525391	27.034597
1.3549805	31.66206
1.3574219	36.161007
1.3598633	38.416027
1.3623047	37.270397
1.3647461	33.611645
1.3671875	31.856508
1.3696289	38.03034
1.3720703	51.471893
1.3745117	66.93298
1.3769531	80.26485
1.3793945	88.931526
1.3818359	91.67699
1.3842773	88.35691
1.3867188	79.79637
1.3891602	67.62325
1.3916016	54.05249
1.394043	41.549324
1.3964844	32.08243
1.3989258	25.834494
1.4013672	20.910748
1.4038086	15.35201
1.40625	8.756402
1.4086914	2.2168148
1.4111328	4.079727
1.4135742	7.652892
1.4160156	8.863798
1.418457	7.9220085
1.4208984	5.5288243
1.4233398	2.8903856
1.4257812	3.4598446
1.4282227	6.9184456
1.4306641	11.058235
1.4331055	15.635466
1.4355469	20.421326
1.4379883	24.882069
1.4404297	28.322048
1.4428711	30.260777
1.4453125	30.888344
1.4477539	31.330727
1.4501953	33.244682
1.4526367	37.496128
1.4550781	43.327312
1.4575195	49.083492
1.4599609	53.180676
1.4624023	54.536148
1.4648438	52.72107
1.4672852	48.028698
1.4697266	41.50693
1.472168	35.031715
1.4746094	31.265413
1.4770508	32.231075
1.4794922	36.84327
1.4819336	42.02545
1.484375	45.220634
1.4868164	45.050552
1.4892578	41.27458
1.4916992	34.62981
1.4941406	26.5482
1.496582	18.839582
1.4990234	13.397818
1.5014648	11.229937
1.5039062	10.808649
1.5063477	9.946823
1.5087891	8.44322
1.5112305	8.993017
1.5136719	13.871092
1.5161133	21.189186
1.5185547	29.194498
1.5209961	37.044933
1.5234375	44.31413
1.5258789	50.648453
1.5283203	55.56768
1.5307617	58.495876
1.5332031	58.968796
1.5356445	56.883717
1.5380859	52.704735
1.5405273	47.582294
1.5429688	43.23249
1.5454102	41.213486
1.5478516	41.69123
1.550293	43.160435
1.5527344	43.602814
1.5551758	41.51317
1.5576172	36.235153
1.5600586	28.01154
1.5625	18.053831
1.5649414	9.923172
1.5673828	12.827649
1.5698242	21.940405
1.5722656	30.720163
1.574707	37.806187
1.5771484	42.72996
1.5795898	45.26848
1.5820312	45.410984
1.5844727	43.393684
1.5869141	39.64849
1.5893555	34.667446
1.5917969	28.903294
1.5942383	22.793707
1.5966797	16.828669
1.5991211	11.489413
1.6015625	7.033046
1.6040039	3.3162112
1.6064453	0.1254631
1.6088867	3.8108838
1.6113281	8.159106
1.6137695	13.359677
1.6162109	19.272259
1.6186523	25.42279
1.6210938	31.166811
1.6235352	35.916927
1.6259766	39.287045
1.628418	41.110382
1.6308594	41.385635
1.6333008	40.2645
1.6357422	38.10896
1.6381836	35.5174
1.640625	33.166363
1.6430664	31.446669
1.6455078	30.193533
1.6479492	28.847208
1.6503906	26.872847
1.652832	23.991804
1.6552734	20.125685
1.6577148	15.290893
1.6601562	9.769424
1.6625977	5.7131834
1.6650391	9.20524
1.6674805	16.330164
1.6699219	23.48504
1.6723633	29.437286
1.6748047	33.339554
1.6772461	34.67389
1.6796875	33.439766
1.6821289	30.271046
1.6845703	26.361277
1.6870117	23.098984
1.6894531	21.31848
1.6918945	20.66824
1.6943359	20.14974
1.6967773	19.327406
1.6992188	18.97413
1.7016602	20.461336
1.7041016	23.840143
1.706543	27.431736
1.7089844	29.365978
1.7114258	28.574558
1.7138672	25.170555
1.7163086	20.916391
1.71875	19.752811
1.7211914	24.401865
1.7236328	32.115467
1.7260742	39.360657
1.7285156	44.09046
1.730957	45.35754
1.7333984	43.028873
1.7358398	37.570107
1.7382812	29.811518
1.7407227	20.722826
1.7431641	11.361127
1.7456055	5.0521197
1.7480469	10.91333
1.7504883	19.75976
1.7529297	28.206095
1.7553711	35.339046
1.7578125	40.353157
1.7602539	42.661564
1.7626953	42.095234
1.7651367	38.95498
1.7675781	33.929794
1.7700195	27.95114
1.7724609	22.040123
1.7749023	17.094784
1.7773438	13.575688
1.7797852	11.295724
1.7822266	9.78269
1.784668	8.908781
1.7871094	8.803663
1.7895508	9.175322
1.7919922	9.284633
1.7944336	8.583558
1.796875	7.2890983
1.7993164	7.0775414
1.8017578	9.812208
1.8041992	14.444301
1.8066406	19.350594
1.809082	23.516703
1.8115234	26.328663
1.8139648	27.485435
1.8164062	26.967018
1.8188477	25.007683
1.8212891	22.058922
1.8237305	18.71627
1.8261719	15.585614
1.8286133	13.119201
1.8310547	11.54763
1.8334961	11.022773
1.8359375	11.722903
1.8383789	13.579083
1.8408203	16.066076
1.8432617	18.429121
1.8457031	19.985212
1.8481445	20.313787
1.8505859	19.374615
1.8530273	17.565657
1.8554688	15.716677
1.8579102	14.869531
1.8603516	15.539958
1.862793	17.145391
1.8652344	18.632336
1.8676758	19.25191
1.8701172	18.77074
1.8725586	17.397362
1.875	15.602845
1.8774414	13.923598
1.8798828	12.845031
1.8823242	12.768623
1.8847656	13.879113
1.887207	15.951809
1.8896484	18.417427
1.8920898	20.604479
1.8945312	21.93077
1.8969727	22.038689
1.8994141	20.886015
1.9018555	18.761438
1.9042969	16.218613
1.9067383	13.976307
1.9091797	12.787777
1.9116211	13.137033
1.9140625	14.888851
1.9165039	17.474398
1.9189453	20.298843
1.9213867	22.870579
1.9238281	24.79848
1.9262695	25.800642
1.9287109	25.74999
1.9311523	24.719765
1.9335938	22.992174
1.9360352	21.002268
1.9384766	19.240274
1.940918	18.14785
1.9433594	18.028498
1.9458008	18.965652
1.9482422	20.77257
1.9506836	23.018082
1.953125	25.136808
1.9555664	26.581488
1.9580078	26.973166
1.9604492	26.203186
1.9628906	24.464602
1.965332	22.16987
1.9677734	19.760506
1.9702148	17.518978
1.9726562	15.624603
1.9750977	14.468207
1.9775391	14.729263
1.9799805	16.668818
1.9824219	19.62351
1.9848633	22.615168
1.9873047	24.978056
1.9897461	26.522066
1.9921875	27.44065
1.9946289	28.077486
1.9970703	28.68859
1.9995117	29.353615
2.0019531	30.04215
2.0043945	30.68943
2.006836	31.183817
2.0092773	31.33353
2.0117188	30.935984
2.0141602	29.964737
2.0166016	28.751274
2.019043	27.93382
2.0214844	27.977213
2.0239258	28.584124
2.0263672	28.768692
2.0288086	27.533873
2.03125	24.414185
2.0336914	19.620544
2.0361328	14.00658
2.0385742	9.322598
2.0410156	8.637657
2.043457	11.730454
2.0458984	15.279384
2.0483398	17.929712
2.0507812	19.45538
2.0532227	20.084974
2.055664	20.283215
2.0581055	20.612036
2.0605469	21.555346
2.0629883	23.277542
2.0654297	25.44973
2.067871	27.351488
2.0703125	28.190931
2.072754	27.423296
2.0751953	24.946865
2.0776367	21.173996
2.0800781	17.057646
2.0825195	14.061163
2.084961	13.391932
2.0874023	14.410394
2.0898438	15.378077
2.0922852	15.247215
2.0947266	13.913647
2.097168	11.978621
2.0996094	10.551206
2.1020508	10.732937
2.1044922	12.562894
2.1069336	15.156115
2.109375	17.6775
2.1118164	19.545275
2.1142578	20.35077
2.1166992	19.853928
2.1191406	18.036516
2.121582	15.154488
2.1240234	11.749445
2.1264648	8.598511
2.1289062	6.5558686
2.1313477	6.005926
2.133789	6.4690986
2.1362305	7.56349
2.1386719	9.325127
2.1411133	11.569515
2.1435547	13.736253
2.145996	15.172467
2.1484375	15.376171
2.150879	14.109579
2.1533203	11.414256
2.1557617	7.5828433
2.1582031	3.2608888
2.1606445	2.830346
2.163086	6.838049
2.1655273	10.145985
2.1679688	11.98572
2.1704102	12.082036
2.1728516	10.548423
2.175293	8.106154
2.1777344	6.8343735
2.1801758	9.110337
2.1826172	13.347994
2.1850586	17.48411
2.1875	20.471935
2.1899414	21.768555
2.1923828	21.223408
2.1948242	19.097347
2.1972656	16.062405
2.199707	13.085489
2.2021484	11.039793
2.2045898	10.047102
2.2070312	9.4519415
2.2094727	8.694842
2.211914	7.7544208
2.2143555	6.913932
2.2167969	6.3455644
2.2192383	5.874565
2.2216797	5.1416883
2.224121	3.903236
2.2265625	2.1571777
2.229004	0.11678648
2.2314453	1.910411
2.2338867	3.594371
2.2363281	4.7114663
2.2387695	5.1608562
2.241211	4.9630313
2.2436523	4.2354164
2.2460938	3.1664038
2.2485352	1.9891961
2.2509766	0.9510977
2.253418	0.36304477
2.2558594	0.5075373
2.2583008	0.7508378
2.2607422	1.1240561
2.2631836	1.6735803
2.265625	2.244171
2.2680664	2.6535132
2.2705078	2.7688174
2.2729492	2.5524836
2.2753906	2.1209073
2.277832	1.8270999
2.2802734	2.092801
2.2827148	2.7929683
2.2851562	3.5662174
2.2875977	4.2168922
2.290039	4.665848
2.2924805	4.8970237
2.2949219	4.918118
2.2973633	4.7182937
2.2998047	4.2608647
2.302246	3.5496647
2.3046875	2.7504814
2.307129	2.2898123
2.3095703	2.4424646
2.3120117	2.7102754
2.3144531	2.5379343
2.3168945	1.9338797
2.319336	2.2540863
2.3217773	4.293741
2.3242188	6.876516
2.3266602	9.299425
2.3291016	11.157346
2.331543	12.241954
2.3339844	12.52233
2.3364258	12.132463
2.3388672	11.361188
2.3413086	10.622962
2.34375	10.355935
2.3461914	10.823456
2.3486328	11.951238
2.3510742	13.381494
2.3535156	14.653988
2.355957	15.364171
2.3583984	15.268171
2.3608398	14.325177
2.3632812	12.677609
2.3657227	10.596959
2.368164	8.410226
2.3706055	6.4049506
2.3730469	4.714421
2.3754883	3.2793486
2.3779297	1.9948524
2.380371	1.1787198
2.3828125	1.8559821
2.385254	3.2238128
2.3876953	4.7019076
2.3901367	6.171889
2.3925781	7.5500603
2.3950195	8.750836
2.397461	9.730789
2.3999023	10.505798
2.4023438	11.097948
2.4047852	11.470997
2.4072266	11.546928
2.409668	11.290462
2.4121094	10.760747
2.4145508	10.078978
2.4169922	9.348801
2.4194336	8.604904
2.421875	7.8177223
2.4243164	6.944192
2.4267578	5.9896474
2.4291992	5.026158
2.4316406	4.144949
2.434082	3.4271715
2.4365234	3.0394664
2.4389648	3.2482884
2.4414062	4.067454
2.4438477	5.2471313
2.446289	6.5649114
