
X-Axis: Frequency (hz)
Y-Axis: Fourier Amplitude (cm/s)
Number of Data Sets: 4


DATASET #1

Name: FAS H1 (cm/s)
Num Points: 2044
Info: 

X, Y Data:
0.009765625	0.50238055
0.012207031	0.59908164
0.014648438	0.6719849
0.017089844	0.7073162
0.01953125	0.68604696
0.021972656	0.587611
0.024414062	0.40355527
0.026855469	0.29008213
0.029296875	0.6869349
0.03173828	1.3802153
0.034179688	2.241808
0.036621094	3.195766
0.0390625	4.149325
0.041503906	4.996254
0.043945312	5.6320095
0.04638672	5.975235
0.048828125	5.9906135
0.05126953	5.7068925
0.053710938	5.22972
0.056152344	4.750439
0.05859375	4.513058
0.061035156	4.6581964
0.06347656	5.0635357
0.06591797	5.4477615
0.068359375	5.568777
0.07080078	5.3004885
0.07324219	4.6325884
0.075683594	3.6729167
0.078125	2.7413619
0.080566406	2.570865
0.08300781	3.5078194
0.08544922	4.870524
0.087890625	6.1501317
0.09033203	7.138802
0.09277344	7.806693
0.095214844	8.272528
0.09765625	8.769287
0.10009766	9.542516
0.10253906	10.699627
0.10498047	12.137387
0.10742188	13.59974
0.10986328	14.768235
0.11230469	15.321667
0.11474609	14.98593
0.1171875	13.610169
0.11962891	11.314098
0.12207031	8.876974
0.12451172	8.509363
0.12695312	11.916679
0.12939453	17.56452
0.13183594	23.948774
0.13427734	30.28063
0.13671875	36.03431
0.13916016	40.798267
0.14160156	44.255962
0.14404297	46.200794
0.14648438	46.5491
0.14892578	45.339817
0.15136719	42.720783
0.1538086	38.925602
0.15625	34.242935
0.1586914	28.980247
0.16113281	23.429382
0.16357422	17.845171
0.16601562	12.442577
0.16845703	7.4037595
0.17089844	2.8905604
0.17333984	1.260756
0.17578125	4.5163145
0.17822266	7.291843
0.18066406	9.580101
0.18310547	11.444833
0.18554688	12.947397
0.18798828	14.154022
0.19042969	15.141335
0.1928711	15.986597
0.1953125	16.750256
0.1977539	17.465961
0.20019531	18.144258
0.20263672	18.78203
0.20507812	19.36544
0.20751953	19.863232
0.20996094	20.220196
0.21240234	20.360098
0.21484375	20.20099
0.21728516	19.67599
0.21972656	18.753962
0.22216797	17.452702
0.22460938	15.839164
0.22705078	14.013197
0.22949219	12.080963
0.2319336	10.129364
0.234375	8.212353
0.2368164	6.358037
0.23925781	4.626926
0.24169922	3.3668113
0.24414062	3.6731336
0.24658203	5.8881946
0.24902344	9.271247
0.25146484	13.519303
0.25390625	18.5363
0.25634766	24.21539
0.25878906	30.36593
0.26123047	36.69128
0.26367188	42.80634
0.26611328	48.28822
0.2685547	52.741627
0.2709961	55.84876
0.2734375	57.389324
0.2758789	57.25114
0.2783203	55.48881
0.28076172	52.485302
0.28320312	49.206596
0.28564453	47.32869
0.28808594	48.646667
0.29052734	53.634186
0.29296875	60.87181
0.29541016	68.117615
0.29785156	73.37946
0.30029297	75.31945
0.30273438	73.33247
0.30517578	67.50517
0.3076172	58.497337
0.3100586	47.383026
0.3125	35.534576
0.3149414	24.683235
0.3173828	17.257019
0.31982422	15.432352
0.32226562	16.876295
0.32470703	17.396208
0.32714844	15.18136
0.32958984	10.679675
0.33203125	9.17413
0.33447266	16.801636
0.33691406	27.75653
0.33935547	38.44095
0.34179688	47.085743
0.34423828	52.563103
0.3466797	54.27248
0.3491211	52.091984
0.3515625	46.28272
0.3540039	37.411743
0.3564453	26.40053
0.35888672	14.949571
0.36132812	8.687198
0.36376953	14.430291
0.36621094	21.367132
0.36865234	25.082996
0.37109375	24.90371
0.37353516	21.45129
0.37597656	16.524363
0.37841797	13.321128
0.38085938	14.439424
0.38330078	17.679296
0.3857422	20.03025
0.3881836	20.276842
0.390625	18.218454
0.3930664	14.184829
0.3955078	9.187975
0.39794922	7.108626
0.40039062	12.338049
0.40283203	20.421621
0.40527344	29.136883
0.40771484	37.819305
0.41015625	46.012596
0.41259766	53.205093
0.41503906	58.746315
0.41748047	61.857506
0.41992188	61.806057
0.42236328	58.254436
0.4248047	51.732105
0.4272461	44.285522
0.4296875	40.0695
0.4321289	43.088467
0.4345703	51.863182
0.43701172	61.452072
0.43945312	68.0717
0.44189453	69.75749
0.44433594	65.89964
0.44677734	56.890076
0.44921875	44.07073
0.45166016	30.59869
0.45410156	24.838436
0.45654297	33.890316
0.45898438	48.659714
0.46142578	61.989258
0.4638672	71.31871
0.4663086	76.03385
0.46875	76.50426
0.4711914	73.38328
0.4736328	67.17831
0.47607422	58.506382
0.47851562	49.35838
0.48095703	45.219135
0.48339844	52.946632
0.48583984	71.27208
0.48828125	93.55786
0.49072266	114.06093
0.49316406	128.22202
0.49560547	132.58862
0.49804688	125.33482
0.5004883	106.787
0.5029297	79.59832
0.5053711	48.89039
0.5078125	26.41865
0.5102539	35.413704
0.5126953	57.150394
0.5151367	76.34262
0.5175781	91.66203
0.52001953	104.1785
0.52246094	114.60902
0.52490234	122.22562
0.52734375	125.12009
0.52978516	121.4263
0.53222656	110.56419
0.53466797	93.82643
0.5371094	74.18987
0.5395508	55.54267
0.5419922	41.4361
0.5444336	33.24193
0.546875	29.067123
0.5493164	26.259943
0.5517578	24.249071
0.5541992	23.577742
0.5566406	23.152546
0.55908203	20.221514
0.56152344	13.237476
0.56396484	11.610039
0.56640625	29.10568
0.56884766	53.46408
0.57128906	79.80698
0.57373047	104.807
0.5761719	125.05889
0.5786133	137.28902
0.5810547	139.0463
0.5834961	129.56313
0.5859375	110.32481
0.5883789	84.91557
0.5908203	58.185238
0.5932617	35.283318
0.5957031	20.926586
0.59814453	15.849368
0.60058594	12.390072
0.60302734	5.385627
0.60546875	8.714754
0.60791016	22.94656
0.61035156	37.671238
0.61279297	50.85479
0.6152344	61.717762
0.6176758	70.348694
0.6201172	77.08427
0.6225586	81.91868
0.625	84.34632
0.6274414	83.68083
0.6298828	79.50118
0.6323242	71.87472
0.6347656	61.43094
0.63720703	49.94302
0.63964844	41.896824
0.64208984	43.401814
0.64453125	53.426346
0.64697266	65.31902
0.64941406	75.032166
0.65185547	81.62026
0.6542969	85.65018
0.6567383	87.94251
0.6591797	88.85217
0.6616211	88.15677
0.6640625	85.736084
0.6665039	82.63132
0.6689453	81.04437
0.6713867	82.31526
0.6738281	84.95639
0.67626953	85.69373
0.67871094	82.02196
0.68115234	73.684265
0.68359375	62.749496
0.68603516	52.31797
0.68847656	43.897644
0.69091797	35.725117
0.6933594	24.77436
0.6958008	9.6777935
0.6982422	8.789462
0.7006836	28.352459
0.703125	46.7993
0.7055664	62.50734
0.7080078	74.88099
0.7104492	84.0933
0.7128906	90.52231
0.71533203	94.28981
0.71777344	95.04878
0.72021484	92.026054
0.72265625	84.389824
0.72509766	71.83305
0.72753906	55.04762
0.72998047	35.8825
0.7324219	18.26836
0.7348633	15.780288
0.7373047	28.07933
0.7397461	39.22959
0.7421875	46.69125
0.7446289	51.639923
0.7470703	56.31258
0.7495117	62.19041
0.7519531	69.28364
0.75439453	76.96205
0.75683594	84.875
0.75927734	93.10361
0.76171875	101.8355
0.76416016	110.96538
0.76660156	119.86679
0.76904297	127.47586
0.7714844	132.68259
0.7739258	134.81914
0.7763672	133.95164
0.7788086	130.77844
0.78125	126.21219
0.7836914	120.95873
0.7861328	115.43488
0.7885742	110.09995
0.7910156	105.87019
0.79345703	104.15768
0.79589844	106.36822
0.79833984	113.19034
0.80078125	124.14009
0.80322266	137.53139
0.80566406	150.73912
0.80810547	160.67828
0.8105469	164.4444
0.8129883	160.03577
0.8154297	146.95837
0.8178711	126.44592
0.8203125	101.11954
0.8227539	74.214195
0.8251953	48.833588
0.8276367	28.217312
0.8300781	19.53887
0.83251953	27.008059
0.83496094	37.843197
0.83740234	45.43505
0.83984375	47.50192
0.84228516	43.265083
0.84472656	33.279396
0.84716797	19.27945
0.8496094	3.7586286
0.8520508	11.437788
0.8544922	24.084396
0.8569336	33.637215
0.859375	39.70858
0.8618164	41.86248
0.8642578	39.58985
0.8666992	32.835365
0.8691406	22.673187
0.87158203	12.383471
0.87402344	11.181714
0.87646484	17.758673
0.87890625	21.74045
0.88134766	20.556747
0.88378906	14.529413
0.88623047	7.578158
0.8886719	12.83378
0.8911133	23.46368
0.8935547	32.04414
0.8959961	36.36639
0.8984375	35.338432
0.9008789	28.681665
0.9033203	17.732904
0.9057617	13.728944
0.9082031	30.359015
0.91064453	52.603333
0.91308594	74.83752
0.91552734	94.55931
0.91796875	110.12139
0.92041016	120.63763
0.92285156	126.03387
0.92529297	126.97694
0.9277344	124.58586
0.9301758	120.0134
0.9326172	114.17097
0.9350586	107.75249
0.9375	101.41825
0.9399414	95.9057
0.9423828	91.98406
0.9448242	90.3091
0.9472656	91.093704
0.94970703	93.66289
0.95214844	96.29799
0.95458984	96.67896
0.95703125	92.67765
0.95947266	83.21957
0.96191406	69.39665
0.96435547	56.759224
0.9667969	56.9716
0.9692383	74.51709
0.9716797	99.441765
0.9741211	122.7237
0.9765625	139.48415
0.9790039	147.5731
0.9814453	146.80682
0.9838867	138.34239
0.9863281	123.99934
0.98876953	105.80785
0.99121094	86.13696
0.99365234	68.7781
0.99609375	60.489365
0.99853516	67.29384
1.0009766	85.92986
1.003418	109.3431
1.0058594	132.93504
1.0083008	153.99826
1.0107422	170.7208
1.0131836	181.88174
1.015625	186.9023
1.0180664	185.937
1.0205078	179.76588
1.0229492	169.40686
1.0253906	155.65692
1.027832	138.91144
1.0302734	119.49314
1.0327148	98.473694
1.0351562	78.98237
1.0375977	67.69381
1.0400391	71.64189
1.0424805	88.30426
1.0449219	109.31807
1.0473633	128.74855
1.0498047	143.36032
1.0522461	151.57304
1.0546875	153.07997
1.0571289	148.74847
1.0595703	140.43518
1.0620117	130.52878
1.0644531	121.1701
1.0668945	113.38503
1.0693359	106.72275
1.0717773	99.82427
1.0742188	91.44648
1.0766602	81.10997
1.0791016	69.11031
1.081543	56.142147
1.0839844	42.903168
1.0864258	29.982672
1.0888672	18.478188
1.0913086	12.981865
1.09375	18.79435
1.0961914	28.408262
1.0986328	36.98058
1.1010742	42.864113
1.1035156	45.509117
1.105957	45.420517
1.1083984	44.259914
1.1108398	44.237022
1.1132812	46.545544
1.1157227	50.43171
1.1181641	54.37926
1.1206055	57.988575
1.1230469	62.988716
1.1254883	72.372154
1.1279297	87.485565
1.1303711	106.50743
1.1328125	125.94086
1.1352539	142.36617
1.1376953	153.25691
1.1401367	157.32037
1.1425781	154.63754
1.1450195	146.59038
1.1474609	135.51796
1.1499023	124.15051
1.1523438	114.83513
1.1547852	108.72116
1.1572266	105.38686
1.159668	103.32384
1.1621094	100.90124
1.1645508	97.13069
1.1669922	92.03966
1.1694336	86.74856
1.171875	83.2615
1.1743164	83.730545
1.1767578	89.14661
1.1791992	98.49493
1.1816406	109.32492
1.184082	118.86227
1.1865234	124.74232
1.1889648	125.42918
1.1914062	120.56353
1.1938477	111.3313
1.1962891	100.76592
1.1987305	93.47379
1.2011719	93.49351
1.2036133	100.84035
1.2060547	111.56229
1.2084961	121.15701
1.2109375	126.55276
1.2133789	126.27522
1.2158203	120.09129
1.2182617	108.62582
1.2207031	93.06573
1.2231445	74.9416
1.2255859	56.05502
1.2280273	39.018265
1.2304688	29.68055
1.2329102	35.377705
1.2353516	51.02542
1.237793	69.19756
1.2402344	86.3616
1.2426758	100.34544
1.2451172	109.61911
1.2475586	113.37724
1.25	111.72506
1.2524414	105.77721
1.2548828	97.49617
1.2573242	89.12821
1.2597656	82.29818
1.262207	77.221115
1.2646484	72.727455
1.2670898	67.15641
1.2695312	59.372448
1.2719727	49.359238
1.2744141	38.497192
1.2768555	29.813026
1.2792969	27.136744
1.2817383	30.363363
1.2841797	35.110718
1.2866211	38.234356
1.2890625	38.60327
1.2915039	36.099648
1.2939453	31.097376
1.2963867	24.68462
1.2988281	20.437445
1.3012695	25.042778
1.3037109	38.30507
1.3061523	55.51589
1.3085938	73.9649
1.3110352	92.11357
1.3134766	108.93288
1.315918	123.63848
1.3183594	135.52614
1.3208008	143.9102
1.3232422	148.15434
1.3256836	147.73611
1.328125	142.33188
1.3305664	131.9372
1.3330078	117.07623
1.3354492	99.164566
1.3378906	81.157974
1.340332	68.496735
1.3427734	67.71423
1.3452148	79.0778
1.3476562	95.89598
1.3500977	111.9728
1.3525391	123.55839
1.3549805	128.61122
1.3574219	126.33247
1.3598633	116.99187
1.3623047	101.76479
1.3647461	82.44504
1.3671875	61.028152
1.3696289	39.291416
1.3720703	18.778585
1.3745117	7.4122615
1.3769531	21.612982
1.3793945	36.846966
1.3818359	49.48261
1.3842773	58.556015
1.3867188	63.289383
1.3891602	63.060463
1.3916016	57.46259
1.394043	46.456223
1.3964844	30.59686
1.3989258	11.589559
1.4013672	12.418798
1.4038086	33.202126
1.40625	52.155
1.4086914	66.979034
1.4111328	76.341675
1.4135742	79.57437
1.4160156	76.63787
1.418457	68.09818
1.4208984	55.093777
1.4233398	39.19666
1.4257812	22.187437
1.4282227	5.989472
1.4306641	9.484324
1.4331055	21.532661
1.4355469	31.270044
1.4379883	39.40098
1.4404297	47.04148
1.4428711	54.98148
1.4453125	63.1952
1.4477539	70.87778
1.4501953	76.85378
1.4526367	80.01916
1.4550781	79.67271
1.4575195	75.68136
1.4599609	68.541466
1.4624023	59.370827
1.4648438	49.84049
1.4672852	41.88605
1.4697266	36.936607
1.472168	34.955208
1.4746094	34.765675
1.4770508	35.689983
1.4794922	38.290504
1.4819336	43.320126
1.484375	50.1637
1.4868164	56.835495
1.4892578	61.197174
1.4916992	62.15388
1.4941406	60.6959
1.496582	60.796284
1.4990234	68.19667
1.5014648	85.077934
1.5039062	108.14703
1.5063477	132.49081
1.5087891	153.93915
1.5112305	169.52757
1.5136719	177.54662
1.5161133	177.51578
1.5185547	170.08704
1.5209961	156.87585
1.5234375	140.17229
1.5258789	122.51672
1.5283203	106.1708
1.5307617	92.587364
1.5332031	82.11384
1.5356445	74.148766
1.5380859	67.71764
1.5405273	62.06949
1.5429688	57.03263
1.5454102	53.180912
1.5478516	51.834446
1.550293	54.501305
1.5527344	61.632114
1.5551758	72.01696
1.5576172	83.49657
1.5600586	93.81939
1.5625	101.09908
1.5649414	104.09308
1.5673828	102.41969
1.5698242	96.72169
1.5722656	88.69721
1.574707	80.93149
1.5771484	76.14523
1.5795898	75.64294
1.5820312	78.23594
1.5844727	81.234085
1.5869141	82.21063
1.5893555	79.80241
1.5917969	73.682144
1.5942383	64.28683
1.5966797	52.552273
1.5991211	39.664753
1.6015625	26.934818
1.6040039	16.379326
1.6064453	13.457046
1.6088867	20.04876
1.6113281	28.761751
1.6137695	36.192444
1.6162109	41.043964
1.6186523	42.576492
1.6210938	40.320293
1.6235352	34.07437
1.6259766	24.111332
1.628418	11.792884
1.6308594	8.347417
1.6333008	21.55848
1.6357422	34.851845
1.6381836	45.350357
1.640625	51.90147
1.6430664	54.118908
1.6455078	52.43381
1.6479492	48.047375
1.6503906	42.48404
1.652832	36.796394
1.6552734	30.931664
1.6577148	24.120031
1.6601562	16.912283
1.6625977	16.906765
1.6650391	30.378687
1.6674805	50.04395
1.6699219	71.13269
1.6723633	90.3583
1.6748047	104.9176
1.6772461	112.75844
1.6796875	112.82362
1.6821289	105.07046
1.6845703	90.42638
1.6870117	70.82433
1.6894531	49.401016
1.6918945	31.133038
1.6943359	23.44617
1.6967773	26.079885
1.6992188	28.303795
1.7016602	25.958368
1.7041016	22.126968
1.706543	25.968765
1.7089844	39.28278
1.7114258	54.925217
1.7138672	67.65903
1.7163086	74.341286
1.71875	73.47396
1.7211914	65.12369
1.7236328	50.632828
1.7260742	32.118294
1.7285156	11.98468
1.730957	8.128751
1.7333984	25.599619
1.7358398	40.131287
1.7382812	51.4065
1.7407227	59.598637
1.7431641	64.742744
1.7456055	66.423195
1.7480469	64.03347
1.7504883	57.55359
1.7529297	48.59504
1.7553711	41.65232
1.7578125	43.003563
1.7602539	52.90171
1.7626953	65.31145
1.7651367	75.25992
1.7675781	80.21851
1.7700195	79.51023
1.7724609	74.01412
1.7749023	66.03627
1.7773438	59.151016
1.7797852	57.111843
1.7822266	61.144344
1.784668	68.98741
1.7871094	77.494255
1.7895508	84.4485
1.7919922	88.6154
1.7944336	89.47719
1.796875	87.08093
1.7993164	81.91508
1.8017578	74.70877
1.8041992	66.19791
1.8066406	56.89321
1.809082	47.006912
1.8115234	36.854748
1.8139648	28.443521
1.8164062	28.0851
1.8188477	39.470432
1.8212891	56.993717
1.8237305	75.413246
1.8261719	91.27623
1.8286133	101.97862
1.8310547	105.74514
1.8334961	101.82007
1.8359375	90.55331
1.8383789	73.29357
1.8408203	52.121136
1.8432617	29.561382
1.8457031	9.067581
1.8481445	13.1112
1.8505859	27.125816
1.8530273	37.002117
1.8554688	42.817616
1.8579102	45.427597
1.8603516	45.498497
1.862793	43.11345
1.8652344	37.970917
1.8676758	29.919243
1.8701172	19.620646
1.8725586	11.254511
1.875	17.22359
1.8774414	30.532343
1.8798828	43.299484
1.8823242	53.037872
1.8847656	58.5248
1.887207	59.472176
1.8896484	56.458923
1.8920898	50.77426
1.8945312	44.196415
1.8969727	38.655594
1.8994141	35.46151
1.9018555	34.356945
1.9042969	33.73168
1.9067383	31.914621
1.9091797	27.953442
1.9116211	21.616684
1.9140625	13.209552
1.9165039	4.2653
1.9189453	9.228265
1.9213867	19.78059
1.9238281	29.34826
1.9262695	36.7926
1.9287109	41.499424
1.9311523	43.314243
1.9335938	42.489223
1.9360352	39.583664
1.9384766	35.359753
1.940918	30.664137
1.9433594	26.2856
1.9458008	22.829866
1.9482422	20.7513
1.9506836	20.450077
1.953125	22.045156
1.9555664	24.962414
1.9580078	28.12999
1.9604492	30.5574
1.9628906	31.735338
1.965332	31.859201
1.9677734	31.94495
1.9702148	33.524345
1.9726562	37.462482
1.9750977	42.96017
1.9775391	48.13231
1.9799805	51.110245
1.9824219	50.603653
1.9848633	46.04595
1.9873047	37.598007
1.9897461	26.113958
1.9921875	13.229725
1.9946289	5.608553
1.9970703	14.747396
1.9995117	23.702314
2.0019531	29.285164
2.0043945	31.021486
2.006836	29.09434
2.0092773	24.222069
2.0117188	17.869534
2.0141602	13.125316
2.0166016	14.236804
2.019043	19.280346
2.0214844	23.886684
2.0239258	26.080534
2.0263672	25.151192
2.0288086	21.11394
2.03125	14.864458
2.0336914	10.103047
2.0361328	14.521996
2.0385742	24.106226
2.0410156	33.578064
2.043457	40.918575
2.0458984	45.093136
2.0483398	45.664886
2.0507812	42.68821
2.0532227	36.61587
2.055664	28.226053
2.0581055	18.569439
2.0605469	8.919079
2.0629883	2.3944345
2.0654297	7.395332
2.067871	11.601007
2.0703125	13.399858
2.072754	13.064094
2.0751953	11.389418
2.0776367	10.010485
2.0800781	11.192081
2.0825195	15.048856
2.084961	19.839178
2.0874023	24.375618
2.0898438	28.229895
2.0922852	31.45796
2.0947266	34.299175
2.097168	36.894325
2.0996094	39.163826
2.1020508	40.895527
2.1044922	41.90011
2.1069336	42.07318
2.109375	41.34245
2.1118164	39.614716
2.1142578	36.829693
2.1166992	33.08787
2.1191406	28.724049
2.121582	24.24515
2.1240234	20.199425
2.1264648	17.104855
2.1289062	15.433352
2.1313477	15.453982
2.133789	17.054344
2.1362305	19.939148
2.1386719	23.773598
2.1411133	28.01514
2.1435547	31.851187
2.145996	34.41641
2.1484375	35.03778
2.150879	33.34205
2.1533203	29.257553
2.1557617	23.024876
2.1582031	15.272598
2.1606445	7.4015007
2.163086	5.8487005
2.1655273	12.092766
2.1679688	17.890594
2.1704102	21.847588
2.1728516	23.819368
2.175293	24.192272
2.1777344	23.740469
2.1801758	23.298616
2.1826172	23.233696
2.1850586	23.181576
2.1875	22.367367
2.1899414	20.17658
2.1923828	16.62711
2.1948242	12.894996
2.1972656	11.841739
2.199707	14.970273
2.2021484	19.651348
2.2045898	23.55894
2.2070312	25.667023
2.2094727	25.705114
2.211914	23.977282
2.2143555	21.392437
2.2167969	19.415169
2.2192383	19.395542
2.2216797	21.299465
2.224121	23.875475
2.2265625	25.968966
2.229004	27.03322
2.2314453	27.049114
2.2338867	26.351843
2.2363281	25.42162
2.2387695	24.631767
2.241211	24.046156
2.2436523	23.428352
2.2460938	22.444805
2.2485352	20.904085
2.2509766	18.924835
2.253418	17.043278
2.2558594	16.15663
2.2583008	16.953924
2.2607422	19.176922
2.2631836	21.885136
2.265625	24.175241
2.2680664	25.427372
2.2705078	25.282509
2.2729492	23.593391
2.2753906	20.413134
2.277832	15.991388
2.2802734	10.743589
2.2827148	5.183584
2.2851562	0.95840293
2.2875977	5.4579763
2.290039	9.746613
2.2924805	13.214732
2.2949219	15.753007
2.2973633	17.331453
2.2998047	18.014467
2.302246	17.952492
2.3046875	17.350554
2.307129	16.449333
2.3095703	15.566895
2.3120117	15.160342
2.3144531	15.773536
2.3168945	17.741085
2.319336	20.937687
2.3217773	24.909866
2.3242188	29.11209
2.3266602	33.012886
2.3291016	36.131958
2.331543	38.082752
2.3339844	38.624268
2.3364258	37.70151
2.3388672	35.46837
2.3413086	32.279743
2.34375	28.638523
2.3461914	25.061632
2.3486328	21.892548
2.3510742	19.186195
2.3535156	16.772219
2.355957	14.423766
2.3583984	11.976713
2.3608398	9.418907
2.3632812	7.16511
2.3657227	6.5050554
2.368164	8.232172
2.3706055	10.967201
2.3730469	13.373262
2.3754883	14.782708
2.3779297	14.891637
2.380371	13.602792
2.3828125	10.986808
2.385254	7.3121552
2.3876953	3.2005634
2.3901367	2.8623269
2.3925781	7.0612903
2.3950195	11.275444
2.397461	15.036475
2.3999023	18.135347
2.4023438	20.43241
2.4047852	21.947304
2.4072266	22.886799
2.409668	23.526594
2.4121094	24.038372
2.4145508	24.432575
2.4169922	24.644806
2.4194336	24.634672
2.421875	24.407246
2.4243164	23.998451
2.4267578	23.487658
2.4291992	23.032707
2.4316406	22.849764
2.434082	23.096472
2.4365234	23.734749
2.4389648	24.494991
2.4414062	24.982525
2.4438477	24.858753
2.446289	24.018528
2.4487305	22.710949
2.4511719	21.5251
2.4536133	21.143501
2.4560547	21.87605
2.458496	23.3746
2.4609375	24.88088
