
X-Axis: Frequency (hz)
Y-Axis: Fourier Amplitude (cm/s)
Number of Data Sets: 4


DATASET #1

Name: FAS H1 (cm/s)
Num Points: 2044
Info: 

X, Y Data:
0.009765625	0.6568812
0.012207031	0.80642974
0.014648438	0.8764351
0.017089844	0.8612854
0.01953125	0.85316813
0.021972656	1.0227302
0.024414062	1.3772491
0.026855469	1.753888
0.029296875	2.0222259
0.03173828	2.1680825
0.034179688	2.3002727
0.036621094	2.5288343
0.0390625	2.7924569
0.041503906	2.9086463
0.043945312	2.7763653
0.04638672	2.5116231
0.048828125	2.409942
0.05126953	2.6007724
0.053710938	2.8677325
0.056152344	3.0351808
0.05859375	3.1729417
0.061035156	3.4131308
0.06347656	3.713478
0.06591797	3.9886935
0.068359375	4.4342165
0.07080078	5.451501
0.07324219	7.067203
0.075683594	8.823691
0.078125	10.188325
0.080566406	10.843534
0.08300781	10.833645
0.08544922	10.588504
0.087890625	10.675152
0.09033203	11.261665
0.09277344	11.923918
0.095214844	12.112569
0.09765625	11.646338
0.10009766	10.921115
0.10253906	10.760328
0.10498047	11.631104
0.10742188	12.987839
0.10986328	13.842908
0.11230469	13.479412
0.11474609	11.660889
0.1171875	8.650471
0.11962891	5.331278
0.12207031	4.070056
0.12451172	6.2121363
0.12695312	9.040434
0.12939453	11.796185
0.13183594	14.787246
0.13427734	18.211966
0.13671875	21.755749
0.13916016	24.85278
0.14160156	27.192488
0.14404297	29.054413
0.14648438	31.209866
0.14892578	34.2873
0.15136719	38.12814
0.1538086	41.902027
0.15625	44.744785
0.1586914	46.202682
0.16113281	46.262936
0.16357422	45.138752
0.16601562	43.09993
0.16845703	40.542393
0.17089844	38.138657
0.17333984	36.62084
0.17578125	36.077785
0.17822266	35.58874
0.18066406	33.868313
0.18310547	30.222647
0.18554688	25.041386
0.18798828	19.786148
0.19042969	16.416746
0.1928711	15.663158
0.1953125	16.035995
0.1977539	16.013958
0.20019531	15.382751
0.20263672	14.814066
0.20507812	15.168368
0.20751953	16.87771
0.20996094	19.631205
0.21240234	22.562021
0.21484375	24.735352
0.21728516	25.719585
0.21972656	26.016678
0.22216797	26.834812
0.22460938	28.833063
0.22705078	31.16576
0.22949219	32.301025
0.2319336	31.2939
0.234375	28.257597
0.2368164	24.165743
0.23925781	20.35419
0.24169922	17.99781
0.24414062	17.770725
0.24658203	19.788649
0.24902344	23.744816
0.25146484	29.113436
0.25390625	35.378857
0.25634766	42.189117
0.25878906	49.284374
0.26123047	56.20151
0.26367188	62.037025
0.26611328	65.57239
0.2685547	65.730995
0.2709961	62.061623
0.2734375	54.96873
0.2758789	45.62753
0.2783203	35.739803
0.28076172	27.301056
0.28320312	22.082207
0.28564453	20.105392
0.28808594	19.13661
0.29052734	17.1121
0.29296875	13.619932
0.29541016	9.718889
0.29785156	7.353764
0.30029297	7.175651
0.30273438	7.094967
0.30517578	5.714439
0.3076172	3.5306091
0.3100586	3.577846
0.3125	5.943777
0.3149414	7.679306
0.3173828	8.748703
0.31982422	11.40792
0.32226562	16.986881
0.32470703	23.95035
0.32714844	30.394178
0.32958984	35.26627
0.33203125	38.23308
0.33447266	38.98241
0.33691406	36.922092
0.33935547	31.90043
0.34179688	25.277468
0.34423828	20.179487
0.3466797	19.295671
0.3491211	21.36385
0.3515625	23.69661
0.3540039	24.68118
0.3564453	23.637514
0.35888672	22.430202
0.36132812	25.634966
0.36376953	32.91931
0.36621094	38.543148
0.36865234	38.22005
0.37109375	31.069796
0.37353516	19.186516
0.37597656	6.2436633
0.37841797	5.1726317
0.38085938	12.736677
0.38330078	18.111097
0.3857422	23.31982
0.3881836	29.465681
0.390625	36.337814
0.3930664	43.56397
0.3955078	50.870605
0.39794922	57.43453
0.40039062	61.760902
0.40283203	62.562294
0.40527344	59.72309
0.40771484	54.386562
0.41015625	48.189854
0.41259766	42.66081
0.41503906	39.313126
0.41748047	39.082752
0.41992188	41.11011
0.42236328	43.863857
0.4248047	46.94584
0.4272461	50.051395
0.4296875	51.13354
0.4321289	47.35853
0.4345703	37.813637
0.43701172	26.001646
0.43945312	23.053093
0.44189453	33.93975
0.44433594	48.366806
0.44677734	62.06248
0.44921875	74.07596
0.45166016	83.30438
0.45410156	88.23841
0.45654297	87.77154
0.45898438	81.70251
0.46142578	70.67992
0.4638672	55.97264
0.4663086	39.724983
0.46875	27.314249
0.4711914	29.10409
0.4736328	40.92124
0.47607422	50.511242
0.47851562	52.360134
0.48095703	45.54342
0.48339844	32.55274
0.48583984	18.088196
0.48828125	9.945246
0.49072266	15.935928
0.49316406	25.242533
0.49560547	33.68933
0.49804688	40.5656
0.5004883	46.013832
0.5029297	49.439213
0.5053711	48.12682
0.5078125	38.939163
0.5102539	22.076231
0.5126953	18.023785
0.5151367	45.043015
0.5175781	75.37529
0.52001953	100.41103
0.52246094	114.75015
0.52490234	115.4384
0.52734375	103.36565
0.52978516	83.17602
0.53222656	61.102894
0.53466797	42.10185
0.5371094	29.009172
0.5395508	24.607012
0.5419922	28.33824
0.5444336	33.28599
0.546875	34.199608
0.5493164	29.53643
0.5517578	20.769741
0.5541992	12.414264
0.5566406	12.472114
0.55908203	17.940771
0.56152344	21.451262
0.56396484	21.22963
0.56640625	18.09821
0.56884766	14.737523
0.57128906	13.009377
0.57373047	12.278991
0.5761719	16.294058
0.5786133	27.633963
0.5810547	40.546555
0.5834961	49.242714
0.5859375	50.642353
0.5883789	45.074074
0.5908203	35.561184
0.5932617	25.790705
0.5957031	18.10584
0.59814453	13.349949
0.60058594	12.337465
0.60302734	16.844212
0.60546875	28.56775
0.60791016	46.418793
0.61035156	66.483986
0.61279297	83.73846
0.6152344	94.40686
0.6176758	97.84359
0.6201172	96.450195
0.6225586	93.29698
0.625	89.53063
0.6274414	83.990585
0.6298828	74.26155
0.6323242	57.976818
0.6347656	35.247402
0.63720703	16.778692
0.63964844	30.80268
0.64208984	47.230637
0.64453125	49.46529
0.64697266	34.428642
0.64941406	16.811586
0.65185547	49.748215
0.6542969	93.99714
0.6567383	132.07729
0.6591797	155.6958
0.6616211	159.05983
0.6640625	139.81017
0.6665039	101.08791
0.6689453	54.168392
0.6713867	34.081852
0.6738281	59.182007
0.67626953	76.52918
0.67871094	77.48071
0.68115234	73.1715
0.68359375	79.5792
0.68603516	95.5187
0.68847656	107.46234
0.69091797	107.19962
0.6933594	94.10068
0.6958008	73.64446
0.6982422	57.868343
0.7006836	60.412445
0.703125	75.15127
0.7055664	87.22969
0.7080078	90.30428
0.7104492	85.01968
0.7128906	75.73609
0.71533203	66.8244
0.71777344	59.436646
0.72021484	51.773396
0.72265625	42.46967
0.72509766	33.76649
0.72753906	32.719822
0.72998047	41.78289
0.7324219	53.72139
0.7348633	63.283306
0.7373047	69.326775
0.7397461	72.61979
0.7421875	74.92765
0.7446289	80.76064
0.7470703	96.0239
0.7495117	119.61104
0.7519531	142.58998
0.75439453	156.47382
0.75683594	158.73598
0.75927734	152.32501
0.76171875	140.15384
0.76416016	120.97955
0.76660156	93.75081
0.76904297	68.38966
0.7714844	69.23144
0.7739258	90.943726
0.7763672	106.26516
0.7788086	105.30309
0.78125	92.11713
0.7836914	78.72782
0.7861328	74.873604
0.7885742	76.407036
0.7910156	73.90286
0.79345703	65.56085
0.79589844	59.214714
0.79833984	65.025375
0.80078125	79.387886
0.80322266	90.62343
0.80566406	91.166084
0.80810547	79.4978
0.8105469	61.253113
0.8129883	51.547665
0.8154297	61.20592
0.8178711	76.38173
0.8203125	84.458855
0.8227539	82.37334
0.8251953	71.45781
0.8276367	54.04092
0.8300781	32.538433
0.83251953	10.525293
0.83496094	11.378231
0.83740234	24.657753
0.83984375	31.228973
0.84228516	32.686142
0.84472656	32.878242
0.84716797	35.1044
0.8496094	39.462624
0.8520508	43.08288
0.8544922	42.416386
0.8569336	35.1086
0.859375	21.38393
0.8618164	10.679117
0.8642578	26.618292
0.8666992	47.249317
0.8691406	64.990875
0.87158203	78.211136
0.87402344	86.44258
0.87646484	89.022736
0.87890625	84.53263
0.88134766	71.77831
0.88378906	52.376614
0.88623047	36.222706
0.8886719	42.626415
0.8911133	62.454174
0.8935547	78.93047
0.8959961	87.50552
0.8984375	88.48893
0.9008789	83.02661
0.9033203	71.830666
0.9057617	56.429672
0.9082031	40.580833
0.91064453	28.901882
0.91308594	21.853943
0.91552734	16.63191
0.91796875	19.694164
0.92041016	33.3093
0.92285156	47.08032
0.92529297	54.051117
0.9277344	51.18017
0.9301758	39.071552
0.9326172	21.45946
0.9350586	9.077046
0.9375	21.259056
0.9399414	34.131023
0.9423828	41.345806
0.9448242	41.902466
0.9472656	36.509125
0.94970703	28.06972
0.95214844	22.425568
0.95458984	25.11913
0.95703125	32.500896
0.95947266	38.547962
0.96191406	39.988323
0.96435547	35.89281
0.9667969	28.678804
0.9692383	25.884752
0.9716797	32.95468
0.9741211	43.365128
0.9765625	51.1037
0.9790039	54.563206
0.9814453	54.334717
0.9838867	51.34149
0.9863281	47.586132
0.98876953	48.60093
0.99121094	57.889397
0.99365234	69.40983
0.99609375	75.60301
0.99853516	74.802055
1.0009766	71.72934
1.003418	72.39015
1.0058594	76.46269
1.0083008	78.11737
1.0107422	72.64931
1.0131836	59.920708
1.015625	46.604473
1.0180664	45.847183
1.0205078	57.601063
1.0229492	67.637596
1.0253906	67.67237
1.027832	55.977917
1.0302734	35.061253
1.0327148	13.136644
1.0351562	23.587265
1.0375977	42.993412
1.0400391	53.63
1.0424805	53.5644
1.0449219	46.703655
1.0473633	44.183502
1.0498047	54.396976
1.0522461	69.03129
1.0546875	77.38118
1.0571289	73.78727
1.0595703	56.870556
1.0620117	29.012913
1.0644531	8.032006
1.0668945	40.069637
1.0693359	67.93749
1.0717773	86.90841
1.0742188	97.020966
1.0766602	100.71762
1.0791016	100.10245
1.081543	94.28133
1.0839844	80.20891
1.0864258	56.887985
1.0888672	31.198175
1.0913086	32.310036
1.09375	56.501137
1.0961914	75.677895
1.0986328	83.01732
1.1010742	77.46462
1.1035156	61.08249
1.105957	40.13732
1.1083984	30.519861
1.1108398	42.05231
1.1132812	54.730278
1.1157227	57.96155
1.1181641	51.11637
1.1206055	39.77256
1.1230469	33.857418
1.1254883	36.252342
1.1279297	37.97483
1.1303711	34.410324
1.1328125	29.54189
1.1352539	30.403444
1.1376953	34.45474
1.1401367	33.887005
1.1425781	26.830915
1.1450195	22.447502
1.1474609	33.302082
1.1499023	48.791508
1.1523438	59.012623
1.1547852	60.4123
1.1572266	52.938778
1.159668	39.48904
1.1621094	26.461987
1.1645508	23.4787
1.1669922	29.44449
1.1694336	35.0781
1.171875	37.665085
1.1743164	37.530376
1.1767578	35.107258
1.1791992	30.495514
1.1816406	24.085949
1.184082	17.887936
1.1865234	17.369608
1.1889648	24.132418
1.1914062	32.16793
1.1938477	37.529236
1.1962891	38.680275
1.1987305	35.424915
1.2011719	28.978233
1.2036133	23.050932
1.2060547	22.965462
1.2084961	27.317995
1.2109375	29.534298
1.2133789	25.5136
1.2158203	14.30588
1.2182617	7.5494967
1.2207031	26.972452
1.2231445	46.86285
1.2255859	61.33041
1.2280273	67.10735
1.2304688	63.507744
1.2329102	53.72994
1.2353516	45.91298
1.237793	48.13882
1.2402344	56.242012
1.2426758	60.905148
1.2451172	57.89184
1.2475586	48.03969
1.25	35.548977
1.2524414	27.292576
1.2548828	31.223108
1.2573242	45.666412
1.2597656	63.386417
1.262207	78.48382
1.2646484	86.39002
1.2670898	84.96202
1.2695312	75.26619
1.2719727	61.102955
1.2744141	47.516712
1.2768555	39.129883
1.2792969	38.37831
1.2817383	43.55742
1.2841797	50.019962
1.2866211	52.978355
1.2890625	48.916107
1.2915039	36.553722
1.2939453	18.106936
1.2963867	14.005395
1.2988281	34.703068
1.3012695	53.077385
1.3037109	64.50221
1.3061523	68.40274
1.3085938	66.19861
1.3110352	60.167442
1.3134766	52.819916
1.315918	47.478607
1.3183594	48.438763
1.3208008	56.96987
1.3232422	68.95579
1.3256836	79.01513
1.328125	83.22634
1.3305664	79.59429
1.3330078	68.084656
1.3354492	50.884274
1.3378906	34.26535
1.340332	32.023438
1.3427734	44.604126
1.3452148	56.34394
1.3476562	60.134457
1.3500977	55.272396
1.3525391	45.842667
1.3549805	40.163815
1.3574219	43.402763
1.3598633	49.16507
1.3623047	49.807705
1.3647461	43.114674
1.3671875	32.03221
1.3696289	24.610542
1.3720703	27.621237
1.3745117	34.522034
1.3769531	39.671345
1.3793945	42.98605
1.3818359	45.131374
1.3842773	45.149006
1.3867188	41.44328
1.3891602	33.521675
1.3916016	22.98279
1.394043	16.838015
1.3964844	25.71477
1.3989258	41.052338
1.4013672	54.514297
1.4038086	61.713715
1.40625	60.206635
1.4086914	49.980648
1.4111328	33.59668
1.4135742	15.678356
1.4160156	7.292011
1.418457	15.493166
1.4208984	20.167723
1.4233398	19.806858
1.4257812	16.33435
1.4282227	12.522078
1.4306641	11.548401
1.4331055	14.444718
1.4355469	19.108536
1.4379883	23.773054
1.4404297	27.39179
1.4428711	29.296854
1.4453125	29.374481
1.4477539	28.48542
1.4501953	28.706951
1.4526367	32.167355
1.4550781	38.702805
1.4575195	46.02326
1.4599609	51.57911
1.4624023	53.432228
1.4648438	50.451595
1.4672852	42.378113
1.4697266	29.919294
1.472168	15.02309
1.4746094	6.5996723
1.4770508	17.945906
1.4794922	28.54132
1.4819336	35.68802
1.484375	39.83164
1.4868164	41.714485
1.4892578	42.054077
1.4916992	42.11899
1.4941406	43.36147
1.496582	45.409653
1.4990234	45.64864
1.5014648	41.68699
1.5039062	33.90689
1.5063477	27.12514
1.5087891	28.313438
1.5112305	35.127132
1.5136719	40.207104
1.5161133	39.960598
1.5185547	33.564255
1.5209961	21.474794
1.5234375	4.8951755
1.5258789	14.454399
1.5283203	33.93185
1.5307617	51.07724
1.5332031	64.16235
1.5356445	72.96634
1.5380859	78.45878
1.5405273	81.29146
1.5429688	80.41867
1.5454102	73.56713
1.5478516	59.20419
1.550293	38.564068
1.5527344	20.14944
1.5551758	28.660715
1.5576172	48.319546
1.5600586	62.36208
1.5625	67.46092
1.5649414	63.996166
1.5673828	54.595966
1.5698242	43.194134
1.5722656	33.76409
1.574707	28.257729
1.5771484	25.346773
1.5795898	23.401838
1.5820312	23.807093
1.5844727	28.691793
1.5869141	36.41433
1.5893555	43.335854
1.5917969	46.50015
1.5942383	44.242737
1.5966797	36.390953
1.5991211	24.364553
1.6015625	11.038945
1.6040039	3.3054545
1.6064453	8.863031
1.6088867	11.495099
1.6113281	15.292255
1.6137695	24.778149
1.6162109	36.308983
1.6186523	45.219475
1.6210938	49.111378
1.6235352	48.589725
1.6259766	47.165726
1.628418	48.999107
1.6308594	54.79347
1.6333008	61.678776
1.6357422	66.80823
1.6381836	68.980545
1.640625	68.4276
1.6430664	66.163475
1.6455078	63.171055
1.6479492	59.5894
1.6503906	54.527966
1.652832	46.93753
1.6552734	37.05073
1.6577148	27.863771
1.6601562	25.255728
1.6625977	29.929459
1.6650391	35.412937
1.6674805	38.25291
1.6699219	39.05104
1.6723633	39.968468
1.6748047	41.69097
1.6772461	42.4414
1.6796875	40.00963
1.6821289	33.568478
1.6845703	23.940382
1.6870117	13.037836
1.6894531	3.4957879
1.6918945	5.545442
1.6943359	9.653837
1.6967773	10.741213
1.6992188	9.653638
1.7016602	7.831544
1.7041016	6.455595
1.706543	5.253475
1.7089844	2.8271077
1.7114258	2.0733085
1.7138672	8.756514
1.7163086	16.472767
1.71875	23.358932
1.7211914	27.539137
1.7236328	27.68553
1.7260742	23.470287
1.7285156	15.774222
1.730957	7.4995885
1.7333984	9.354153
1.7358398	17.646002
1.7382812	24.546965
1.7407227	29.12135
1.7431641	31.867893
1.7456055	33.812164
1.7480469	35.806633
1.7504883	37.90113
1.7529297	39.123978
1.7553711	37.852116
1.7578125	32.5778
1.7602539	22.732533
1.7626953	9.402914
1.7651367	7.471707
1.7675781	20.750004
1.7700195	30.172497
1.7724609	33.645023
1.7749023	31.278908
1.7773438	24.997894
1.7797852	17.569181
1.7822266	10.802296
1.784668	4.957596
1.7871094	8.142213
1.7895508	18.550953
1.7919922	28.883251
1.7944336	35.640938
1.796875	36.502396
1.7993164	31.295046
1.8017578	23.440212
1.8041992	22.418142
1.8066406	32.531452
1.809082	45.31921
1.8115234	55.558384
1.8139648	61.359352
1.8164062	62.290203
1.8188477	58.748356
1.8212891	51.75275
1.8237305	42.950283
1.8261719	34.800503
1.8286133	30.491444
1.8310547	31.747166
1.8334961	36.368958
1.8359375	40.927387
1.8383789	43.153934
1.8408203	41.878075
1.8432617	36.738476
1.8457031	28.14712
1.8481445	17.566479
1.8505859	10.097302
1.8530273	15.598842
1.8554688	24.972261
1.8579102	31.734264
1.8603516	34.27329
1.862793	32.776512
1.8652344	29.280123
1.8676758	27.343218
1.8701172	28.976341
1.8725586	31.81878
1.875	32.448658
1.8774414	29.398478
1.8798828	23.306448
1.8823242	16.111956
1.8847656	9.852864
1.887207	5.367234
1.8896484	2.1468298
1.8920898	1.6375071
1.8945312	2.864931
1.8969727	2.8103976
1.8994141	5.3056374
1.9018555	11.547322
1.9042969	18.69457
1.9067383	24.701475
1.9091797	28.50352
1.9116211	30.326466
1.9140625	31.333143
1.9165039	32.49718
1.9189453	33.68101
1.9213867	34.08929
1.9238281	33.44057
1.9262695	32.51562
1.9287109	32.66593
1.9311523	34.636272
1.9335938	37.918232
1.9360352	41.296093
1.9384766	43.5232
1.940918	43.54104
1.9433594	40.65061
1.9458008	34.905643
1.9482422	27.644205
1.9506836	22.095512
1.953125	22.249958
1.9555664	27.206442
1.9580078	32.75741
1.9604492	36.475155
1.9628906	37.614906
1.965332	36.431007
1.9677734	33.991806
1.9702148	32.059948
1.9726562	32.3052
1.9750977	34.80328
1.9775391	37.922375
1.9799805	39.900524
1.9824219	40.031567
1.9848633	39.011368
1.9873047	38.608715
1.9897461	40.40474
1.9921875	44.28425
1.9946289	48.63513
1.9970703	51.835247
1.9995117	53.220345
2.0019531	53.240486
2.0043945	53.030777
2.006836	53.50857
2.0092773	54.555862
2.0117188	55.182068
2.0141602	54.496162
2.0166016	52.4754
2.019043	50.020073
2.0214844	48.303856
2.0239258	47.730793
2.0263672	47.43812
2.0288086	45.930126
2.03125	42.033978
2.0336914	35.40874
2.0361328	26.714903
2.0385742	17.820993
2.0410156	12.408802
2.043457	13.182763
2.0458984	15.47741
2.0483398	15.449518
2.0507812	12.718682
2.0532227	9.124824
2.055664	8.903126
2.0581055	12.97245
2.0605469	17.807783
2.0629883	21.910559
2.0654297	24.932255
2.067871	26.662003
2.0703125	26.725853
2.072754	24.738226
2.0751953	20.698692
2.0776367	15.338073
2.0800781	10.176561
2.0825195	7.019443
2.084961	6.079734
2.0874023	5.9841795
2.0898438	7.244949
2.0922852	10.187197
2.0947266	13.453885
2.097168	16.247822
2.0996094	18.920298
2.1020508	22.101967
2.1044922	25.648466
2.1069336	28.81188
2.109375	31.129332
2.1118164	32.748352
2.1142578	33.95102
2.1166992	34.496227
2.1191406	33.589325
2.121582	30.483692
2.1240234	25.059092
2.1264648	18.002447
2.1289062	10.671443
2.1313477	5.0999126
2.133789	4.224856
2.1362305	5.151051
2.1386719	4.4893928
2.1411133	2.4535363
2.1435547	1.7653408
2.145996	3.8966827
2.1484375	5.3081384
2.150879	5.235688
2.1533203	3.710481
2.1557617	1.8916194
2.1582031	3.7792623
2.1606445	7.1143684
2.163086	10.168598
2.1655273	12.591731
2.1679688	14.292416
2.1704102	15.203074
2.1728516	15.21336
2.175293	14.273432
2.1777344	12.538968
2.1801758	10.40473
2.1826172	8.374511
2.1850586	6.8525558
2.1875	6.007672
2.1899414	5.848537
2.1923828	6.5368896
2.1948242	8.584608
2.1972656	12.348547
2.199707	17.521736
2.2021484	23.2685
2.2045898	28.517796
2.2070312	32.22308
2.2094727	33.60153
2.211914	32.36349
2.2143555	28.947897
2.2167969	24.711031
2.2192383	21.722467
2.2216797	21.27902
2.224121	22.25912
2.2265625	22.546597
2.229004	20.928503
2.2314453	17.299158
2.2338867	12.440331
2.2363281	8.172287
2.2387695	7.039776
2.241211	7.728784
2.2436523	6.803276
2.2460938	3.5257304
2.2485352	3.2184718
2.2509766	8.399821
2.253418	12.550446
2.2558594	14.375744
2.2583008	13.751048
2.2607422	11.305059
2.2631836	8.111735
2.265625	5.930966
2.2680664	6.9090858
2.2705078	9.773949
2.2729492	12.499075
2.2753906	14.317607
2.277832	14.983285
2.2802734	14.374763
2.2827148	12.477028
2.2851562	9.9222555
2.2875977	9.095333
2.290039	12.061215
2.2924805	16.430801
2.2949219	19.496342
2.2973633	19.884802
2.2998047	17.486584
2.302246	13.826907
2.3046875	12.508258
2.307129	15.413182
2.3095703	19.272871
2.3120117	21.511002
2.3144531	21.934347
2.3168945	22.09366
2.319336	23.773724
2.3217773	26.838758
2.3242188	29.534561
2.3266602	30.391903
2.3291016	28.991028
2.331543	25.73658
2.3339844	21.313044
2.3364258	16.231102
2.3388672	10.751513
2.3413086	5.177031
2.34375	1.6124585
2.3461914	5.1950045
2.3486328	7.9872255
2.3510742	8.798608
2.3535156	7.5460014
2.355957	4.7403874
2.3583984	2.7614605
2.3608398	5.941661
2.3632812	10.378176
2.3657227	14.475406
2.368164	17.604128
2.3706055	19.14429
2.3730469	18.680344
2.3754883	16.441425
2.3779297	13.611336
2.380371	11.936541
2.3828125	11.907358
2.385254	12.181359
2.3876953	11.972768
2.3901367	11.956256
2.3925781	12.907592
2.3950195	14.262689
2.397461	14.887469
2.3999023	14.240952
2.4023438	12.509051
2.4047852	10.278803
2.4072266	8.279442
2.409668	7.4636354
2.4121094	8.66067
2.4145508	11.373836
2.4169922	14.388933
2.4194336	16.693913
2.421875	17.636864
2.4243164	17.004293
2.4267578	15.035334
2.4291992	12.276527
2.4316406	9.300995
2.434082	6.4763837
2.4365234	4.1002383
2.4389648	3.2348063
2.4414062	4.6768265
2.4438477	6.7096667
2.446289	8.224184
2.4487305	8.709624
2.4511719	7.895122
2.4536133	5.7495656
2.4560547	2.5297089
2.458496	1.5267935
