
X-Axis: Frequency (hz)
Y-Axis: Fourier Amplitude (cm/s)
Number of Data Sets: 4


DATASET #1

Name: FAS H1 (cm/s)
Num Points: 2044
Info: 

X, Y Data:
0.009765625	0.076411456
0.012207031	0.11079852
0.014648438	0.16385671
0.017089844	0.24469043
0.01953125	0.3641074
0.021972656	0.5313643
0.024414062	0.7535174
0.026855469	1.037618
0.029296875	1.3907791
0.03173828	1.817276
0.034179688	2.316836
0.036621094	2.8861248
0.0390625	3.5209093
0.041503906	4.216045
0.043945312	4.9644237
0.04638672	5.75737
0.048828125	6.5866675
0.05126953	7.445957
0.053710938	8.330439
0.056152344	9.235848
0.05859375	10.157886
0.061035156	11.092429
0.06347656	12.036088
0.06591797	12.986405
0.068359375	13.940841
0.07080078	14.89517
0.07324219	15.843704
0.075683594	16.782503
0.078125	17.712894
0.080566406	18.642206
0.08300781	19.582762
0.08544922	20.552189
0.087890625	21.575577
0.09033203	22.685984
0.09277344	23.920345
0.095214844	25.311478
0.09765625	26.880255
0.10009766	28.63113
0.10253906	30.551338
0.10498047	32.611588
0.10742188	34.76689
0.10986328	36.95817
0.11230469	39.116783
0.11474609	41.17263
0.1171875	43.06292
0.11962891	44.737587
0.12207031	46.15971
0.12451172	47.30341
0.12695312	48.153576
0.12939453	48.70875
0.13183594	48.983997
0.13427734	49.00951
0.13671875	48.82459
0.13916016	48.47211
0.14160156	47.998096
0.14404297	47.45468
0.14648438	46.900486
0.14892578	46.39456
0.15136719	45.98693
0.1538086	45.712505
0.15625	45.591457
0.1586914	45.632626
0.16113281	45.834404
0.16357422	46.181435
0.16601562	46.64031
0.16845703	47.15945
0.17089844	47.67421
0.17333984	48.115
0.17578125	48.413822
0.17822266	48.507755
0.18066406	48.34169
0.18310547	47.87361
0.18554688	47.08413
0.18798828	45.98668
0.19042969	44.633797
0.1928711	43.1166
0.1953125	41.55762
0.1977539	40.09668
0.20019531	38.86779
0.20263672	37.96718
0.20507812	37.421566
0.20751953	37.17212
0.20996094	37.085457
0.21240234	36.988834
0.21484375	36.716568
0.21728516	36.157265
0.21972656	35.298634
0.22216797	34.26832
0.22460938	33.357315
0.22705078	32.988743
0.22949219	33.58555
0.2319336	35.358498
0.234375	38.164864
0.2368164	41.56143
0.23925781	44.976383
0.24169922	47.858944
0.24414062	49.760418
0.24658203	50.365
0.24902344	49.495956
0.25146484	47.116257
0.25390625	43.34166
0.25634766	38.48302
0.25878906	33.139996
0.26123047	28.365944
0.26367188	25.75806
0.26611328	26.751337
0.2685547	31.182936
0.2709961	37.604862
0.2734375	44.650803
0.2758789	51.402992
0.2783203	57.24186
0.28076172	61.69936
0.28320312	64.3782
0.28564453	64.917786
0.28808594	62.998352
0.29052734	58.380283
0.29296875	50.968353
0.29541016	40.880207
0.29785156	28.505777
0.30029297	14.645644
0.30273438	4.9391937
0.30517578	17.249063
0.3076172	31.202635
0.3100586	43.43335
0.3125	52.96395
0.3149414	59.122845
0.3173828	61.515743
0.31982422	60.061214
0.32226562	55.027485
0.32470703	47.08089
0.32714844	37.41252
0.32958984	28.142456
0.33203125	23.069498
0.33447266	25.378155
0.33691406	32.20124
0.33935547	39.313057
0.34179688	44.630634
0.34423828	47.37213
0.3466797	47.43358
0.3491211	45.14479
0.3515625	41.16575
0.3540039	36.468357
0.3564453	32.35483
0.35888672	30.261124
0.36132812	30.960428
0.36376953	33.83599
0.36621094	37.479687
0.36865234	40.698326
0.37109375	42.87581
0.37353516	43.929222
0.37597656	44.133545
0.37841797	43.883785
0.38085938	43.464428
0.38330078	42.93632
0.3857422	42.193115
0.3881836	41.116863
0.390625	39.71494
0.3930664	38.168182
0.3955078	36.774635
0.39794922	35.815933
0.40039062	35.428757
0.40283203	35.582767
0.40527344	36.176815
0.40771484	37.153996
0.41015625	38.5418
0.41259766	40.410458
0.41503906	42.79576
0.41748047	45.627068
0.41992188	48.675056
0.42236328	51.527504
0.4248047	53.624607
0.4272461	54.39927
0.4296875	53.537254
0.4321289	51.305214
0.4345703	48.784523
0.43701172	47.64448
0.43945312	49.067837
0.44189453	52.581524
0.44433594	56.37738
0.44677734	58.605278
0.44921875	58.18334
0.45166016	54.971855
0.45410156	49.656094
0.45654297	43.539165
0.45898438	38.286995
0.46142578	35.44411
0.4638672	35.557777
0.4663086	37.734566
0.46875	40.403625
0.4711914	42.19503
0.4736328	42.217068
0.47607422	40.084152
0.47851562	35.942448
0.48095703	30.482464
0.48339844	24.860134
0.48583984	20.40381
0.48828125	17.91188
0.49072266	16.946306
0.49316406	16.382553
0.49560547	15.53927
0.49804688	14.409221
0.5004883	13.27078
0.5029297	12.339331
0.5053711	11.887133
0.5078125	12.61127
0.5102539	15.080638
0.5126953	18.643389
0.5151367	21.82957
0.5175781	23.370611
0.52001953	22.883816
0.52246094	21.327854
0.52490234	20.790255
0.52734375	22.454147
0.52978516	24.848063
0.53222656	25.679989
0.53466797	23.765238
0.5371094	19.44561
0.5395508	14.58165
0.5419922	12.187204
0.5444336	13.147064
0.546875	14.485471
0.5493164	14.10909
0.5517578	11.843575
0.5541992	8.500499
0.5566406	5.0566015
0.55908203	1.9843637
0.56152344	1.4655209
0.56396484	4.793223
0.56640625	8.272279
0.56884766	11.140038
0.57128906	12.83925
0.57373047	13.266139
0.5761719	12.735223
0.5786133	11.756651
0.5810547	11.07933
0.5834961	12.012842
0.5859375	15.491856
0.5883789	20.739252
0.5908203	26.209324
0.5932617	30.61171
0.5957031	33.34256
0.59814453	34.72139
0.60058594	35.782814
0.60302734	37.319588
0.60546875	38.87399
0.60791016	39.000313
0.61035156	36.47369
0.61279297	31.154379
0.6152344	24.066166
0.6176758	16.809658
0.6201172	10.516891
0.6225586	4.9386053
0.625	1.1137978
0.6274414	8.118481
0.6298828	15.521927
0.6323242	22.197584
0.6347656	27.334694
0.63720703	30.881102
0.63964844	33.401577
0.64208984	35.424313
0.64453125	36.913586
0.64697266	37.45038
0.64941406	36.783268
0.65185547	35.071323
0.6542969	32.686737
0.6567383	29.92145
0.6591797	26.942595
0.6616211	23.989525
0.6640625	21.539768
0.6665039	20.256607
0.6689453	20.726627
0.6713867	23.151733
0.6738281	27.252682
0.67626953	32.433258
0.67871094	38.038006
0.68115234	43.585987
0.68359375	48.870087
0.68603516	53.8411
0.68847656	58.353085
0.69091797	61.999813
0.6933594	64.20475
0.6958008	64.47768
0.6982422	62.61056
0.7006836	58.674763
0.703125	52.883587
0.7055664	45.51116
0.7080078	36.987907
0.7104492	28.125826
0.7128906	20.428854
0.71533203	16.398016
0.71777344	17.673471
0.72021484	22.02489
0.72265625	26.84479
0.72509766	30.95539
0.72753906	33.85472
0.72998047	35.34205
0.7324219	35.406975
0.7348633	34.112263
0.7373047	31.482277
0.7397461	27.510475
0.7421875	22.291567
0.7446289	16.167149
0.7470703	9.894712
0.7495117	5.7900925
0.7519531	8.271613
0.75439453	13.530269
0.75683594	18.685957
0.75927734	23.159958
0.76171875	26.740627
0.76416016	29.317747
0.76660156	30.884325
0.76904297	31.541443
0.7714844	31.411825
0.7739258	30.493519
0.7763672	28.60443
0.7788086	25.521118
0.78125	21.214317
0.7836914	15.994135
0.7861328	10.48883
0.7885742	5.5815315
0.7910156	2.8567257
0.79345703	3.4522626
0.79589844	3.832765
0.79833984	2.5716836
0.80078125	1.2792033
0.80322266	5.4511013
0.80566406	10.926711
0.80810547	16.765112
0.8105469	22.360538
0.8129883	27.219284
0.8154297	30.984467
0.8178711	33.461117
0.8203125	34.650036
0.8227539	34.78082
0.8251953	34.297688
0.8276367	33.74752
0.8300781	33.58822
0.83251953	34.044804
0.83496094	35.130432
0.83740234	36.76448
0.83984375	38.814095
0.84228516	41.02393
0.84472656	42.94991
0.84716797	44.00418
0.8496094	43.61555
0.8520508	41.449
0.8544922	37.640526
0.8569336	33.035294
0.859375	29.354612
0.8618164	28.705406
0.8642578	31.751797
0.8666992	37.003193
0.8691406	42.58048
0.87158203	47.28516
0.87402344	50.523457
0.87646484	52.030205
0.87890625	51.689762
0.88134766	49.477936
0.88378906	45.484108
0.88623047	39.953083
0.8886719	33.30132
0.8911133	26.08835
0.8935547	18.94368
0.8959961	12.467066
0.8984375	7.1531253
0.9008789	3.6173608
0.9033203	3.4869907
0.9057617	5.6856456
0.9082031	8.268128
0.91064453	10.880045
0.91308594	13.376602
0.91552734	15.696521
0.91796875	17.923223
0.92041016	20.234486
0.92285156	22.75007
0.92529297	25.414595
0.9277344	28.024672
0.9301758	30.361174
0.9326172	32.322685
0.9350586	33.995663
0.9375	35.636524
0.9399414	37.55683
0.9423828	39.94884
0.9448242	42.75281
0.9472656	45.666317
0.94970703	48.27096
0.95214844	50.165707
0.95458984	51.014626
0.95703125	50.512573
0.95947266	48.35159
0.96191406	44.278408
0.96435547	38.240307
0.9667969	30.520454
0.9692383	21.754389
0.9716797	12.814618
0.9741211	4.748744
0.9765625	3.4139533
0.9790039	8.263047
0.9814453	11.548372
0.9838867	13.083689
0.9863281	13.201683
0.98876953	12.53616
0.99121094	11.938658
0.99365234	12.099173
0.99609375	12.992842
0.99853516	13.960089
1.0009766	14.300822
1.003418	13.655486
1.0058594	12.236058
1.0083008	11.139194
1.0107422	12.103507
1.0131836	15.476077
1.015625	19.904041
1.0180664	24.108795
1.0205078	27.320986
1.0229492	29.153952
1.0253906	29.517185
1.027832	28.595673
1.0302734	26.861973
1.0327148	25.063839
1.0351562	24.058142
1.0375977	24.37513
1.0400391	25.811806
1.0424805	27.582167
1.0449219	28.791485
1.0473633	28.732235
1.0498047	26.99225
1.0522461	23.54795
1.0546875	18.971289
1.0571289	14.978262
1.0595703	14.779042
1.0620117	19.307976
1.0644531	25.8319
1.0668945	32.372852
1.0693359	38.224564
1.0717773	43.363617
1.0742188	48.10455
1.0766602	52.867203
1.0791016	58.01897
1.081543	63.760925
1.0839844	70.03122
1.0864258	76.45665
1.0888672	82.40924
1.0913086	87.15234
1.09375	90.00082
1.0961914	90.43136
1.0986328	88.14032
1.1010742	83.074135
1.1035156	75.449
1.105957	65.738
1.1083984	54.603783
1.1108398	42.78658
1.1132812	31.00049
1.1157227	19.887707
1.1181641	10.132524
1.1206055	4.564478
1.1230469	9.368941
1.1254883	16.355026
1.1279297	23.63665
1.1303711	31.233522
1.1328125	38.8751
1.1352539	45.941673
1.1376953	51.669285
1.1401367	55.342175
1.1425781	56.41775
1.1450195	54.617832
1.1474609	50.018925
1.1499023	43.14807
1.1523438	35.121548
1.1547852	27.992403
1.1572266	25.100687
1.159668	28.700117
1.1621094	36.7268
1.1645508	46.181858
1.1669922	55.325462
1.1694336	63.269955
1.171875	69.62239
1.1743164	74.32741
1.1767578	77.53201
1.1791992	79.452614
1.1816406	80.31335
1.184082	80.382515
1.1865234	80.03885
1.1889648	79.76639
1.1914062	80.02739
1.1938477	81.06904
1.1962891	82.79998
1.1987305	84.833405
1.2011719	86.659775
1.2036133	87.8141
1.2060547	87.94508
1.2084961	86.802704
1.2109375	84.22299
1.2133789	80.16286
1.2158203	74.76993
1.2182617	68.417816
1.2207031	61.658676
1.2231445	55.092472
1.2255859	49.192127
1.2280273	44.135315
1.2304688	39.71611
1.2329102	35.431396
1.2353516	30.758307
1.237793	25.525805
1.2402344	20.350702
1.2426758	17.232225
1.2451172	18.81932
1.2475586	24.60419
1.25	31.97609
1.2524414	39.159416
1.2548828	45.223343
1.2573242	49.812305
1.2597656	53.101135
1.262207	55.727024
1.2646484	58.525314
1.2670898	62.08554
1.2695312	66.40193
1.2719727	70.90036
1.2744141	74.76585
1.2768555	77.28496
1.2792969	78.04257
1.2817383	76.97935
1.2841797	74.3514
1.2866211	70.63709
1.2890625	66.41693
1.2915039	62.238388
1.2939453	58.469223
1.2963867	55.16741
1.2988281	52.0461
1.3012695	48.588707
1.3037109	44.27352
1.3061523	38.802074
1.3085938	32.277046
1.3110352	25.365572
1.3134766	19.598194
1.315918	17.496677
1.3183594	20.142809
1.3208008	25.264044
1.3232422	30.609512
1.3256836	35.12736
1.328125	38.426785
1.3305664	40.446102
1.3330078	41.31238
1.3354492	41.25561
1.3378906	40.530132
1.340332	39.351353
1.3427734	37.875336
1.3452148	36.23468
1.3476562	34.597244
1.3500977	33.19108
1.3525391	32.241867
1.3549805	31.831083
1.3574219	31.779749
1.3598633	31.679668
1.3623047	31.067913
1.3647461	29.624067
1.3671875	27.313326
1.3696289	24.490543
1.3720703	22.004871
1.3745117	21.157547
1.3769531	22.97215
1.3793945	27.201292
1.3818359	32.72451
1.3842773	38.464924
1.3867188	43.66291
1.3891602	47.8443
1.3916016	50.76965
1.394043	52.394993
1.3964844	52.83256
1.3989258	52.303715
1.4013672	51.083324
1.4038086	49.44637
1.40625	47.619244
1.4086914	45.746983
1.4111328	43.880226
1.4135742	41.984024
1.4160156	39.96051
1.418457	37.6767
1.4208984	34.991966
1.4233398	31.785992
1.4257812	27.975712
1.4282227	23.522112
1.4306641	18.43997
1.4331055	12.865239
1.4355469	7.4682207
1.4379883	5.998072
1.4404297	11.096601
1.4428711	17.84256
1.4453125	24.555346
1.4477539	30.67826
1.4501953	35.89271
1.4526367	40.009815
1.4550781	42.94031
1.4575195	44.671974
1.4599609	45.254314
1.4624023	44.79205
1.4648438	43.441593
1.4672852	41.398968
1.4697266	38.87372
1.472168	36.050854
1.4746094	33.068375
1.4770508	30.046518
1.4794922	27.185852
1.4819336	24.900055
1.484375	23.846077
1.4868164	24.623531
1.4892578	27.256609
1.4916992	31.140505
1.4941406	35.50476
1.496582	39.78634
1.4990234	43.764503
1.5014648	47.568005
1.5039062	51.58263
1.5063477	56.251026
1.5087891	61.830627
1.5112305	68.256096
1.5136719	75.1821
1.5161133	82.14112
1.5185547	88.70999
1.5209961	94.61782
1.5234375	99.78002
1.5258789	104.25123
1.5283203	108.12325
1.5307617	111.41939
1.5332031	114.04562
1.5356445	115.82565
1.5380859	116.58778
1.5405273	116.25587
1.5429688	114.90417
1.5454102	112.7653
1.5478516	110.18772
1.550293	107.53979
1.5527344	105.07174
1.5551758	102.79765
1.5576172	100.48003
1.5600586	97.75069
1.5625	94.29857
1.5649414	90.01681
1.5673828	85.04748
1.5698242	79.718315
1.5722656	74.41435
1.574707	69.43388
1.5771484	64.89495
1.5795898	60.73067
1.5820312	56.77279
1.5844727	52.87419
1.5869141	49.015854
1.5893555	45.35055
1.5917969	42.162212
1.5942383	39.732903
1.5966797	38.177185
1.5991211	37.353558
1.6015625	36.937855
1.6040039	36.595406
1.6064453	36.113716
1.6088867	35.42772
1.6113281	34.573143
1.6137695	33.63855
1.6162109	32.764023
1.6186523	32.163944
1.6210938	32.106857
1.6235352	32.813877
1.6259766	34.32589
1.628418	36.454163
1.6308594	38.84997
1.6333008	41.112507
1.6357422	42.856724
1.6381836	43.7448
1.640625	43.51386
1.6430664	42.01432
1.6455078	39.24386
1.6479492	35.35416
1.6503906	30.633772
1.652832	25.478035
1.6552734	20.374325
1.6577148	15.925672
1.6601562	12.877349
1.6625977	11.85521
1.6650391	12.652602
1.6674805	14.345912
1.6699219	16.177109
1.6723633	17.766615
1.6748047	18.963015
1.6772461	19.735056
1.6796875	20.128624
1.6821289	20.239553
1.6845703	20.174139
1.6870117	19.99662
1.6894531	19.693516
1.6918945	19.1936
1.6943359	18.449251
1.6967773	17.54078
1.6992188	16.747992
1.7016602	16.516775
1.7041016	17.240665
1.706543	18.972034
1.7089844	21.38411
1.7114258	23.991407
1.7138672	26.331978
1.7163086	28.034325
1.71875	28.835403
1.7211914	28.596426
1.7236328	27.333664
1.7260742	25.27189
1.7285156	22.92377
1.730957	21.145586
1.7333984	20.937412
1.7358398	22.769278
1.7382812	26.162956
1.7407227	30.199223
1.7431641	34.078594
1.7456055	37.263477
1.7480469	39.448048
1.7504883	40.519997
1.7529297	40.540913
1.7553711	39.744728
1.7578125	38.541447
1.7602539	37.50747
1.7626953	37.30129
1.7651367	38.453068
1.7675781	41.110054
1.7700195	44.973747
1.7724609	49.490524
1.7749023	54.0932
1.7773438	58.336155
1.7797852	61.92311
1.7822266	64.67659
1.784668	66.49688
1.7871094	67.33981
1.7895508	67.222725
1.7919922	66.23993
1.7944336	64.56418
1.796875	62.413788
1.7993164	59.986645
1.8017578	57.383587
1.8041992	54.55936
1.8066406	51.334026
1.809082	47.468616
1.8115234	42.76526
1.8139648	37.151474
1.8164062	30.718287
1.8188477	23.716198
1.8212891	16.523909
1.8237305	9.674258
1.8261719	4.561941
1.8286133	5.8249907
1.8310547	10.144288
1.8334961	14.036703
1.8359375	17.069942
1.8383789	19.237547
1.8408203	20.640245
1.8432617	21.401653
1.8457031	21.61309
1.8481445	21.304272
1.8505859	20.448992
1.8530273	19.002373
1.8554688	16.949621
1.8579102	14.350896
1.8603516	11.387468
1.862793	8.461951
1.8652344	6.493412
1.8676758	6.857343
1.8701172	9.3309965
1.8725586	12.641036
1.875	16.146406
1.8774414	19.589355
1.8798828	22.82509
1.8823242	25.743443
1.8847656	28.264698
1.887207	30.362154
1.8896484	32.076588
1.8920898	33.50038
1.8945312	34.72971
1.8969727	35.80783
1.8994141	36.698162
1.9018555	37.30314
1.9042969	37.522404
1.9067383	37.313984
1.9091797	36.731304
1.9116211	35.914825
1.9140625	35.038754
1.9165039	34.233543
1.9189453	33.532406
1.9213867	32.8818
1.9238281	32.214947
1.9262695	31.529411
1.9287109	30.908833
1.9311523	30.46603
1.9335938	30.245527
1.9360352	30.156696
1.9384766	29.990551
1.940918	29.502584
1.9433594	28.503235
1.9458008	26.912872
1.9482422	24.777643
1.9506836	22.264671
1.953125	19.648376
1.9555664	17.286558
1.9580078	15.555493
1.9604492	14.702882
1.9628906	14.678624
1.965332	15.143357
1.9677734	15.669788
1.9702148	15.915694
1.9726562	15.679404
1.9750977	14.892625
1.9775391	13.597921
1.9799805	11.916405
1.9824219	10.009113
1.9848633	8.036221
1.9873047	6.1281652
1.9897461	4.3872905
1.9921875	2.9376533
1.9946289	2.0826268
1.9970703	2.2559657
1.9995117	3.1310077
2.0019531	4.193262
2.0043945	5.2611384
2.006836	6.280216
2.0092773	7.228227
2.0117188	8.090995
2.0141602	8.856246
2.0166016	9.512985
2.019043	10.049231
2.0214844	10.448163
2.0239258	10.692202
2.0263672	10.772453
2.0288086	10.702391
2.03125	10.524184
2.0336914	10.304341
2.0361328	10.119165
2.0385742	10.037413
2.0410156	10.106388
2.043457	10.350315
2.0458984	10.779133
2.0483398	11.397379
2.0507812	12.206019
2.0532227	13.194062
2.055664	14.332245
2.0581055	15.570738
2.0605469	16.843292
2.0629883	18.072687
2.0654297	19.176962
2.067871	20.078539
2.0703125	20.710373
2.072754	21.01974
2.0751953	20.968012
2.0776367	20.532265
2.0800781	19.71378
2.0825195	18.548729
2.084961	17.116934
2.0874023	15.538651
2.0898438	13.9586
2.0922852	12.517337
2.0947266	11.317108
2.097168	10.396093
2.0996094	9.724822
2.1020508	9.231948
2.1044922	8.839885
2.1069336	8.487089
2.109375	8.128683
2.1118164	7.726616
2.1142578	7.243697
2.1166992	6.6473
2.1191406	5.920769
2.121582	5.0796494
2.1240234	4.195642
2.1264648	3.4372873
2.1289062	3.095308
2.1313477	3.3781474
2.133789	4.1131654
2.1362305	4.987606
2.1386719	5.8026714
2.1411133	6.478603
2.1435547	7.0204487
2.145996	7.493055
2.1484375	7.9923043
2.150879	8.609988
2.1533203	9.400934
2.1557617	10.368324
2.1582031	11.470599
2.1606445	12.640388
2.163086	13.804278
2.1655273	14.90056
2.1679688	15.894216
2.1704102	16.78247
2.1728516	17.586876
2.175293	18.332623
2.1777344	19.028004
2.1801758	19.654903
2.1826172	20.174326
2.1850586	20.543549
2.1875	20.73503
2.1899414	20.754213
2.1923828	20.647564
2.1948242	20.500137
2.1972656	20.416464
2.199707	20.491486
2.2021484	20.776495
2.2045898	21.25958
2.2070312	21.866156
2.2094727	22.480639
2.211914	22.975895
2.2143555	23.240969
2.2167969	23.20149
2.2192383	22.832216
2.2216797	22.157291
2.224121	21.24289
2.2265625	20.180647
2.229004	19.069166
2.2314453	17.990667
2.2338867	16.991524
2.2363281	16.072552
2.2387695	15.200199
2.241211	14.334718
2.2436523	13.462887
2.2460938	12.622886
2.2485352	11.912131
2.2509766	11.473229
2.253418	11.442773
2.2558594	11.876778
2.2583008	12.708155
2.2607422	13.779279
2.2631836	14.913677
2.265625	15.970309
2.2680664	16.871492
2.2705078	17.609896
2.2729492	18.241753
2.2753906	18.85995
2.277832	19.54979
2.2802734	20.343285
2.2827148	21.199928
2.2851562	22.024323
2.2875977	22.706322
2.290039	23.157532
2.2924805	23.334427
2.2949219	23.248735
2.2973633	22.965715
2.2998047	22.58944
2.302246	22.231474
2.3046875	21.969906
2.307129	21.817469
2.3095703	21.721088
2.3120117	21.592035
2.3144531	21.352182
2.3168945	20.971478
2.319336	20.488628
2.3217773	20.007467
2.3242188	19.66179
2.3266602	19.552769
2.3291016	19.68439
2.331543	19.941626
2.3339844	20.125568
2.3364258	20.018232
2.3388672	19.441916
2.3413086	18.299553
2.34375	16.599295
2.3461914	14.473246
2.3486328	12.200903
2.3510742	10.237454
2.3535156	9.166099
2.355957	9.337461
2.3583984	10.471066
2.3608398	11.994084
2.3632812	13.512686
2.3657227	14.873132
2.368164	16.071514
2.3706055	17.16282
2.3730469	18.189575
2.3754883	19.139372
2.3779297	19.937355
2.380371	20.469404
2.3828125	20.620108
2.385254	20.309029
2.3876953	19.517464
2.3901367	18.302565
2.3925781	16.803806
2.3950195	15.248808
2.397461	13.950362
2.3999023	13.256164
2.4023438	13.402723
2.4047852	14.362684
2.4072266	15.879909
2.409668	17.646456
2.4121094	19.418749
2.4145508	21.043211
2.4169922	22.443724
2.4194336	23.60617
2.421875	24.56449
2.4243164	25.382582
2.4267578	26.128843
2.4291992	26.848488
2.4316406	27.545994
2.434082	28.187004
2.4365234	28.716585
2.4389648	29.081942
2.4414062	29.247715
2.4438477	29.199165
2.446289	28.93371
2.4487305	28.4461
2.4511719	27.716696
