
X-Axis: Frequency (hz)
Y-Axis: Fourier Amplitude (cm/s)
Number of Data Sets: 4


DATASET #1

Name: FAS H1 (cm/s)
Num Points: 2044
Info: 

X, Y Data:
0.009765625	0.10103558
0.012207031	0.14217846
0.014648438	0.1943411
0.017089844	0.26084816
0.01953125	0.34659207
0.021972656	0.45691848
0.024414062	0.59630823
0.026855469	0.76844645
0.029296875	0.9762907
0.03173828	1.2210865
0.034179688	1.5014528
0.036621094	1.8139002
0.0390625	2.1540713
0.041503906	2.517407
0.043945312	2.8991122
0.04638672	3.2940934
0.048828125	3.6974194
0.05126953	4.1045866
0.053710938	4.5114064
0.056152344	4.913644
0.05859375	5.3066907
0.061035156	5.6857076
0.06347656	6.0463724
0.06591797	6.385496
0.068359375	6.700751
0.07080078	6.9898596
0.07324219	7.250924
0.075683594	7.484656
0.078125	7.697254
0.080566406	7.9023666
0.08300781	8.122279
0.08544922	8.389048
0.087890625	8.744475
0.09033203	9.236415
0.09277344	9.910059
0.095214844	10.796805
0.09765625	11.905869
0.10009766	13.222261
0.10253906	14.710765
0.10498047	16.322357
0.10742188	17.999804
0.10986328	19.68151
0.11230469	21.305044
0.11474609	22.811743
0.1171875	24.151909
0.11962891	25.28806
0.12207031	26.195055
0.12451172	26.858114
0.12695312	27.27174
0.12939453	27.44026
0.13183594	27.378317
0.13427734	27.108988
0.13671875	26.660292
0.13916016	26.063076
0.14160156	25.352026
0.14404297	24.56816
0.14648438	23.759933
0.14892578	22.981737
0.15136719	22.291054
0.1538086	21.74554
0.15625	21.399069
0.1586914	21.294764
0.16113281	21.454895
0.16357422	21.871014
0.16601562	22.499376
0.16845703	23.264627
0.17089844	24.070686
0.17333984	24.815048
0.17578125	25.402388
0.17822266	25.754911
0.18066406	25.818533
0.18310547	25.56541
0.18554688	24.994114
0.18798828	24.128492
0.19042969	23.016243
0.1928711	21.72739
0.1953125	20.352697
0.1977539	19.000187
0.20019531	17.786093
0.20263672	16.815035
0.20507812	16.148556
0.20751953	15.774931
0.20996094	15.602937
0.21240234	15.490929
0.21484375	15.298931
0.21728516	14.94554
0.21972656	14.462781
0.22216797	14.041718
0.22460938	14.028202
0.22705078	14.784038
0.22949219	16.433428
0.2319336	18.751732
0.234375	21.306284
0.2368164	23.638786
0.23925781	25.363876
0.24169922	26.209362
0.24414062	26.031137
0.24658203	24.811617
0.24902344	22.644154
0.25146484	19.707808
0.25390625	16.240736
0.25634766	12.524707
0.25878906	8.912883
0.26123047	6.0157127
0.26367188	5.104232
0.26611328	6.6696506
0.2685547	9.267562
0.2709961	12.061743
0.2734375	14.838001
0.2758789	17.554617
0.2783203	20.190363
0.28076172	22.683012
0.28320312	24.90091
0.28564453	26.640194
0.28808594	27.648396
0.29052734	27.670156
0.29296875	26.504118
0.29541016	24.054504
0.29785156	20.36208
0.30029297	15.606601
0.30273438	10.094926
0.30517578	4.3877063
0.3076172	3.360262
0.3100586	8.779987
0.3125	14.13838
0.3149414	18.719421
0.3173828	22.189127
0.31982422	24.293602
0.32226562	24.860727
0.32470703	23.824024
0.32714844	21.243618
0.32958984	17.31526
0.33203125	12.367068
0.33447266	6.881146
0.33691406	2.3745203
0.33935547	5.53267
0.34179688	10.31726
0.34423828	14.337986
0.3466797	17.262974
0.3491211	18.958195
0.3515625	19.383123
0.3540039	18.553503
0.3564453	16.530344
0.35888672	13.450064
0.36132812	9.643337
0.36376953	6.1863017
0.36621094	6.4509225
0.36865234	10.844301
0.37109375	16.324509
0.37353516	21.735119
0.37597656	26.508032
0.37841797	30.161661
0.38085938	32.24855
0.38330078	32.419277
0.3857422	30.51929
0.3881836	26.668653
0.390625	21.303425
0.3930664	15.226285
0.3955078	9.94699
0.39794922	8.558937
0.40039062	11.760241
0.40283203	16.032127
0.40527344	19.69966
0.40771484	22.276756
0.41015625	23.586359
0.41259766	23.548996
0.41503906	22.186485
0.41748047	19.738739
0.41992188	16.853907
0.42236328	14.734784
0.4248047	14.634788
0.4272461	16.415932
0.4296875	18.675661
0.4321289	20.22496
0.4345703	20.522333
0.43701172	19.510174
0.43945312	17.42995
0.44189453	14.75941
0.44433594	12.345523
0.44677734	11.499838
0.44921875	12.972857
0.45166016	15.837915
0.45410156	18.754929
0.45654297	20.910202
0.45898438	21.97856
0.46142578	21.95648
0.4638672	21.019777
0.4663086	19.42362
0.46875	17.48022
0.4711914	15.626262
0.4736328	14.494121
0.47607422	14.68876
0.47851562	16.178638
0.48095703	18.178175
0.48339844	19.745562
0.48583984	20.256004
0.48828125	19.583868
0.49072266	18.126862
0.49316406	16.647055
0.49560547	15.840582
0.49804688	15.831265
0.5004883	16.199415
0.5029297	16.495892
0.5053711	16.52258
0.5078125	16.26387
0.5102539	15.767202
0.5126953	15.132215
0.5151367	14.537322
0.5175781	14.139257
0.52001953	13.856114
0.52246094	13.317778
0.52490234	12.123311
0.52734375	10.153175
0.52978516	7.6860075
0.53222656	5.27528
0.53466797	3.4830563
0.5371094	2.8217685
0.5395508	3.7641993
0.5419922	5.8403435
0.5444336	8.260014
0.546875	10.496184
0.5493164	12.324032
0.5517578	13.735295
0.5541992	14.761555
0.5566406	15.435286
0.55908203	15.916132
0.56152344	16.4708
0.56396484	17.1679
0.56640625	17.731125
0.56884766	17.895016
0.57128906	17.843641
0.57373047	18.142372
0.5761719	19.086142
0.5786133	20.27157
0.5810547	21.022821
0.5834961	20.999502
0.5859375	20.383087
0.5883789	19.69455
0.5908203	19.425116
0.5932617	19.699167
0.5957031	20.235838
0.59814453	20.600063
0.60058594	20.465696
0.60302734	19.739504
0.60546875	18.540848
0.60791016	17.056875
0.61035156	15.374241
0.61279297	13.48521
0.6152344	11.530916
0.6176758	10.033619
0.6201172	9.634378
0.6225586	10.254768
0.625	11.077666
0.6274414	11.387774
0.6298828	10.888144
0.6323242	9.635212
0.6347656	7.9635653
0.63720703	6.4143176
0.63964844	5.521141
0.64208984	5.4014983
0.64453125	5.820187
0.64697266	6.748036
0.64941406	8.239005
0.65185547	9.989686
0.6542969	11.481936
0.6567383	12.483588
0.6591797	13.459957
0.6616211	15.439156
0.6640625	18.979378
0.6665039	23.549652
0.6689453	28.195805
0.6713867	32.23358
0.6738281	35.43979
0.67626953	37.887623
0.67871094	39.6193
0.68115234	40.460045
0.68359375	40.16466
0.68603516	38.708504
0.68847656	36.38182
0.69091797	33.58373
0.6933594	30.5526
0.6958008	27.347916
0.6982422	24.092247
0.7006836	21.172935
0.703125	19.170544
0.7055664	18.522339
0.7080078	19.196823
0.7104492	20.732136
0.7128906	22.516748
0.71533203	23.998566
0.71777344	24.81137
0.72021484	24.848616
0.72265625	24.231339
0.72509766	23.168402
0.72753906	21.80739
0.72998047	20.192345
0.7324219	18.329775
0.7348633	16.266075
0.7373047	14.111209
0.7397461	12.036939
0.7421875	10.309919
0.7446289	9.347752
0.7470703	9.577007
0.7495117	10.987998
0.7519531	13.081029
0.75439453	15.284747
0.75683594	17.191748
0.75927734	18.609459
0.76171875	19.560978
0.76416016	20.236412
0.76660156	20.88251
0.76904297	21.659817
0.7714844	22.53866
0.7739258	23.290703
0.7763672	23.573538
0.7788086	23.06146
0.78125	21.56962
0.7836914	19.129738
0.7861328	15.998713
0.7885742	12.615706
0.7910156	9.544003
0.79345703	7.38966
0.79589844	6.529222
0.79833984	6.766084
0.80078125	7.776043
0.80322266	9.590534
0.80566406	12.208605
0.80810547	15.269724
0.8105469	18.247644
0.8129883	20.797329
0.8154297	22.99336
0.8178711	25.311268
0.8203125	28.257782
0.8227539	31.88805
0.8251953	35.699165
0.8276367	38.940292
0.8300781	40.97295
0.83251953	41.471233
0.83496094	40.464996
0.83740234	38.269688
0.83984375	35.34964
0.84228516	32.16217
0.84472656	29.027977
0.84716797	26.067684
0.8496094	23.22919
0.8520508	20.387287
0.8544922	17.456257
0.8569336	14.460176
0.859375	11.540755
0.8618164	8.902919
0.8642578	6.700307
0.8666992	4.9272003
0.8691406	3.562701
0.87158203	3.2261693
0.87402344	4.6868634
0.87646484	7.142581
0.87890625	9.774256
0.88134766	12.166337
0.88378906	14.14248
0.88623047	15.690005
0.8886719	16.858925
0.8911133	17.650246
0.8935547	17.973667
0.8959961	17.715584
0.8984375	16.865316
0.9008789	15.602354
0.9033203	14.272809
0.9057617	13.240438
0.9082031	12.69307
0.91064453	12.59922
0.91308594	12.875836
0.91552734	13.54383
0.91796875	14.698413
0.92041016	16.386354
0.92285156	18.546333
0.92529297	21.03572
0.9277344	23.673916
0.9301758	26.2705
0.9326172	28.644117
0.9350586	30.63974
0.9375	32.145973
0.9399414	33.11643
0.9423828	33.59366
0.9448242	33.72718
0.9472656	33.769646
0.94970703	34.034496
0.95214844	34.806812
0.95458984	36.231087
0.95703125	38.235565
0.95947266	40.539272
0.96191406	42.731396
0.96435547	44.37484
0.9667969	45.098495
0.9692383	44.6573
0.9716797	42.958485
0.9741211	40.06987
0.9765625	36.235355
0.9790039	31.901531
0.9814453	27.712938
0.9838867	24.379223
0.9863281	22.336575
0.98876953	21.41105
0.99121094	20.939613
0.99365234	20.236729
0.99609375	18.863813
0.99853516	16.62632
1.0009766	13.521513
1.003418	9.770788
1.0058594	6.098975
1.0083008	4.914593
1.0107422	7.646188
1.0131836	11.279081
1.015625	14.407416
1.0180664	16.566916
1.0205078	17.554203
1.0229492	17.350168
1.0253906	16.200617
1.027832	14.779289
1.0302734	14.261974
1.0327148	15.689021
1.0351562	18.856707
1.0375977	22.658583
1.0400391	26.025343
1.0424805	28.189148
1.0449219	28.677954
1.0473633	27.303043
1.0498047	24.13682
1.0522461	19.465477
1.0546875	13.77711
1.0571289	8.109078
1.0595703	6.379931
1.0620117	11.076256
1.0644531	16.979477
1.0668945	22.08808
1.0693359	25.776354
1.0717773	27.895327
1.0742188	28.659946
1.0766602	28.540823
1.0791016	28.078886
1.081543	27.685911
1.0839844	27.556065
1.0864258	27.743607
1.0888672	28.2913
1.0913086	29.247564
1.09375	30.563736
1.0961914	32.021492
1.0986328	33.30415
1.1010742	34.164093
1.1035156	34.55984
1.105957	34.678757
1.1083984	34.82017
1.1108398	35.18475
1.1132812	35.71267
1.1157227	36.106464
1.1181641	36.00787
1.1206055	35.169884
1.1230469	33.51637
1.1254883	31.10484
1.1279297	28.071741
1.1303711	24.631344
1.1328125	21.135666
1.1352539	18.115105
1.1376953	16.153187
1.1401367	15.524209
1.1425781	15.99699
1.1450195	17.211096
1.1474609	19.047913
1.1499023	21.498465
1.1523438	24.353552
1.1547852	27.137436
1.1572266	29.290281
1.159668	30.388313
1.1621094	30.285576
1.1645508	29.170795
1.1669922	27.563463
1.1694336	26.24561
1.171875	26.044983
1.1743164	27.41957
1.1767578	30.161081
1.1791992	33.572155
1.1816406	36.84766
1.184082	39.309483
1.1865234	40.503784
1.1889648	40.235386
1.1914062	38.55299
1.1938477	35.687153
1.1962891	31.96728
1.1987305	27.752542
1.2011719	23.394758
1.2036133	19.21066
1.2060547	15.424359
1.2084961	12.082893
1.2109375	9.071462
1.2133789	6.4697833
1.2158203	5.5227127
1.2182617	7.7494287
1.2207031	11.69584
1.2231445	15.850796
1.2255859	19.410654
1.2280273	21.865837
1.2304688	22.92045
1.2329102	22.495615
1.2353516	20.738749
1.237793	18.036337
1.2402344	15.054948
1.2426758	12.802343
1.2451172	12.363908
1.2475586	13.895588
1.25	16.482151
1.2524414	19.238363
1.2548828	21.687067
1.2573242	23.606066
1.2597656	24.879597
1.262207	25.43317
1.2646484	25.228603
1.2670898	24.276974
1.2695312	22.635208
1.2719727	20.390676
1.2744141	17.68189
1.2768555	14.852693
1.2792969	12.843807
1.2817383	13.365323
1.2841797	17.196602
1.2866211	23.252092
1.2890625	30.302921
1.2915039	37.547993
1.2939453	44.456425
1.2963867	50.657913
1.2988281	55.900993
1.3012695	60.037415
1.3037109	63.017864
1.3061523	64.88954
1.3085938	65.78528
1.3110352	65.89202
1.3134766	65.394104
1.315918	64.41405
1.3183594	62.98559
1.3208008	61.085377
1.3232422	58.705368
1.3256836	55.91795
1.328125	52.880714
1.3305664	49.77104
1.3330078	46.693367
1.3354492	43.633595
1.3378906	40.502094
1.340332	37.233063
1.3427734	33.889442
1.3452148	30.737074
1.3476562	28.267002
1.3500977	27.087181
1.3525391	27.597984
1.3549805	29.657257
1.3574219	32.654278
1.3598633	35.89414
1.3623047	38.886475
1.3647461	41.43443
1.3671875	43.585693
1.3696289	45.497383
1.3720703	47.281765
1.3745117	48.91613
1.3769531	50.265606
1.3793945	51.18289
1.3818359	51.604244
1.3842773	51.57563
1.3867188	51.19818
1.3891602	50.53251
1.3916016	49.529957
1.394043	48.04692
1.3964844	45.95046
1.3989258	43.27284
1.4013672	40.34641
1.4038086	37.84195
1.40625	36.598633
1.4086914	37.174576
1.4111328	39.41386
1.4135742	42.533802
1.4160156	45.60701
1.418457	47.925037
1.4208984	49.10491
1.4233398	49.041225
1.4257812	47.80774
1.4282227	45.576855
1.4306641	42.612877
1.4331055	39.351746
1.4355469	36.511036
1.4379883	35.063324
1.4404297	35.8318
1.4428711	38.868156
1.4453125	43.364605
1.4477539	48.17902
1.4501953	52.290466
1.4526367	54.969307
1.4550781	55.808002
1.4575195	54.702652
1.4599609	51.802467
1.4624023	47.428993
1.4648438	41.976887
1.4672852	35.829308
1.4697266	29.340416
1.472168	22.955278
1.4746094	17.572786
1.4770508	15.062792
1.4794922	16.983469
1.4819336	21.88508
1.484375	27.56101
1.4868164	32.77785
1.4892578	36.94661
1.4916992	39.85242
1.4941406	41.576553
1.496582	42.46448
1.4990234	43.05177
1.5014648	43.892353
1.5039062	45.315327
1.5063477	47.254456
1.5087891	49.291004
1.5112305	50.867672
1.5136719	51.52301
1.5161133	51.055588
1.5185547	49.613316
1.5209961	47.719437
1.5234375	46.190983
1.5258789	45.864223
1.5283203	47.154205
1.5307617	49.7866
1.5332031	52.998543
1.5356445	55.984924
1.5380859	58.216316
1.5405273	59.5403
1.5429688	60.130512
1.5454102	60.349983
1.5478516	60.57639
1.550293	61.045887
1.5527344	61.771275
1.5551758	62.564735
1.5576172	63.138832
1.5600586	63.22221
1.5625	62.63496
1.5649414	61.304134
1.5673828	59.23762
1.5698242	56.488888
1.5722656	53.14604
1.574707	49.348988
1.5771484	45.31013
1.5795898	41.303394
1.5820312	37.601116
1.5844727	34.385815
1.5869141	31.687746
1.5893555	29.393806
1.5917969	27.313044
1.5942383	25.24335
1.5966797	23.002226
1.5991211	20.432652
1.6015625	17.408936
1.6040039	13.857883
1.6064453	9.803634
1.6088867	5.56
1.6113281	3.568297
1.6137695	7.3369765
1.6162109	12.547941
1.6186523	17.731043
1.6210938	22.435143
1.6235352	26.380098
1.6259766	29.413645
1.628418	31.527655
1.6308594	32.859104
1.6333008	33.659733
1.6357422	34.23488
1.6381836	34.862125
1.640625	35.71334
1.6430664	36.810818
1.6455078	38.041595
1.6479492	39.217785
1.6503906	40.146656
1.652832	40.67552
1.6552734	40.69543
1.6577148	40.11557
1.6601562	38.83765
1.6625977	36.75456
1.6650391	33.779682
1.6674805	29.88603
1.6699219	25.132246
1.6723633	19.668734
1.6748047	13.729668
1.6772461	7.65865
1.6796875	2.7167513
1.6821289	5.6610413
1.6845703	10.968596
1.6870117	15.973478
1.6894531	20.479326
1.6918945	24.444796
1.6943359	27.832268
1.6967773	30.565987
1.6992188	32.536964
1.7016602	33.641666
1.7041016	33.834354
1.706543	33.169823
1.7089844	31.825796
1.7114258	30.096191
1.7138672	28.35046
1.7163086	26.948317
1.71875	26.1244
1.7211914	25.899208
1.7236328	26.093683
1.7260742	26.435448
1.7285156	26.673218
1.730957	26.638384
1.7333984	26.259106
1.7358398	25.552505
1.7382812	24.603544
1.7407227	23.531801
1.7431641	22.45553
1.7456055	21.470402
1.7480469	20.661602
1.7504883	20.13121
1.7529297	19.998024
1.7553711	20.343542
1.7578125	21.14261
1.7602539	22.252026
1.7626953	23.470894
1.7651367	24.616188
1.7675781	25.571377
1.7700195	26.304317
1.7724609	26.868608
1.7749023	27.388182
1.7773438	28.020891
1.7797852	28.904108
1.7822266	30.1049
1.784668	31.598713
1.7871094	33.284718
1.7895508	35.022984
1.7919922	36.673203
1.7944336	38.126957
1.796875	39.324974
1.7993164	40.256607
1.8017578	40.936455
1.8041992	41.36893
1.8066406	41.520107
1.809082	41.31575
1.8115234	40.66563
1.8139648	39.498627
1.8164062	37.79134
1.8188477	35.581142
1.8212891	32.963367
1.8237305	30.074713
1.8261719	27.070034
1.8286133	24.105389
1.8310547	21.346806
1.8334961	19.013655
1.8359375	17.426607
1.8383789	16.948925
1.8408203	17.732769
1.8432617	19.50425
1.8457031	21.694279
1.8481445	23.71766
1.8505859	25.132488
1.8530273	25.694893
1.8554688	25.37294
1.8579102	24.341612
1.8603516	22.959
1.862793	21.708359
1.8652344	21.074236
1.8676758	21.35217
1.8701172	22.519697
1.8725586	24.31188
1.875	26.411808
1.8774414	28.570658
1.8798828	30.625322
1.8823242	32.468803
1.8847656	34.017075
1.887207	35.19048
1.8896484	35.90992
1.8920898	36.110367
1.8945312	35.765003
1.8969727	34.912598
1.8994141	33.669113
1.9018555	32.207504
1.9042969	30.704914
1.9067383	29.274258
1.9091797	27.922352
1.9116211	26.563675
1.9140625	25.088085
1.9165039	23.442492
1.9189453	21.686853
1.9213867	19.998663
1.9238281	18.61239
1.9262695	17.698814
1.9287109	17.252174
1.9311523	17.098803
1.9335938	17.03979
1.9360352	17.006182
1.9384766	17.122826
1.940918	17.643972
1.9433594	18.778044
1.9458008	20.518915
1.9482422	22.6347
1.9506836	24.79669
1.953125	26.710112
1.9555664	28.180151
1.9580078	29.116621
1.9604492	29.506018
1.9628906	29.370714
1.965332	28.736866
1.9677734	27.617327
1.9702148	26.012129
1.9726562	23.919905
1.9750977	21.354279
1.9775391	18.362482
1.9799805	15.038245
1.9824219	11.532344
1.9848633	8.071154
1.9873047	5.0636106
1.9897461	3.5688994
1.9921875	4.590298
1.9946289	6.6160984
1.9970703	8.633332
1.9995117	10.42967
2.0019531	11.986988
2.0043945	13.317447
2.006836	14.411876
2.0092773	15.231062
2.0117188	15.724849
2.0141602	15.867748
2.0166016	15.692392
2.019043	15.311546
2.0214844	14.914841
2.0239258	14.732121
2.0263672	14.95777
2.0288086	15.665159
2.03125	16.775291
2.0336914	18.106653
2.0361328	19.45812
2.0385742	20.666916
2.0410156	21.634142
2.043457	22.324114
2.0458984	22.752783
2.0483398	22.969894
2.0507812	23.040747
2.0532227	23.027636
2.055664	22.973145
2.0581055	22.891321
2.0605469	22.768742
2.0629883	22.576979
2.0654297	22.286205
2.067871	21.874052
2.0703125	21.32847
2.072754	20.651857
2.0751953	19.870102
2.0776367	19.045397
2.0800781	18.283987
2.0825195	17.728052
2.084961	17.525984
2.0874023	17.783573
2.0898438	18.51874
2.0922852	19.65312
2.0947266	21.04332
2.097168	22.528374
2.0996094	23.967722
2.1020508	25.259518
2.1044922	26.344866
2.1069336	27.199211
2.109375	27.820755
2.1118164	28.217962
2.1142578	28.400076
2.1166992	28.37238
2.1191406	28.135965
2.121582	27.691454
2.1240234	27.045074
2.1264648	26.215311
2.1289062	25.237028
2.1313477	24.161427
2.133789	23.048462
2.1362305	21.954319
2.1386719	20.91957
2.1411133	19.962114
2.1435547	19.081497
2.145996	18.27023
2.1484375	17.528461
2.150879	16.870617
2.1533203	16.322897
2.1557617	15.914362
2.1582031	15.667954
2.1606445	15.593092
2.163086	15.680437
2.1655273	15.900493
2.1679688	16.208784
2.1704102	16.554644
2.1728516	16.891459
2.175293	17.184103
2.1777344	17.413538
2.1801758	17.578066
2.1826172	17.691088
2.1850586	17.775131
2.1875	17.852495
2.1899414	17.933876
2.1923828	18.011126
2.1948242	18.05738
2.1972656	18.035007
2.199707	17.906372
2.2021484	17.643457
2.2045898	17.234943
2.2070312	16.689913
2.2094727	16.038939
2.211914	15.329636
2.2143555	14.617412
2.2167969	13.952621
2.2192383	13.36837
2.2216797	12.875683
2.224121	12.471092
2.2265625	12.148528
2.229004	11.909398
2.2314453	11.760672
2.2338867	11.704858
2.2363281	11.730429
2.2387695	11.811836
2.241211	11.920691
2.2436523	12.041246
2.2460938	12.18122
2.2485352	12.370037
2.2509766	12.64577
2.253418	13.034622
2.2558594	13.53682
2.2583008	14.126731
2.2607422	14.767026
2.2631836	15.426918
2.265625	16.094484
2.2680664	16.777628
2.2705078	17.500744
2.2729492	18.302107
2.2753906	19.232868
2.277832	20.348764
2.2802734	21.689993
2.2827148	23.25842
2.2851562	25.005968
2.2875977	26.841576
2.290039	28.650452
2.2924805	30.317377
2.2949219	31.74592
2.2973633	32.869465
2.2998047	33.651108
2.302246	34.07567
2.3046875	34.140663
2.307129	33.851757
2.3095703	33.225845
2.3120117	32.297264
2.3144531	31.123999
2.3168945	29.788273
2.319336	28.393309
2.3217773	27.05057
2.3242188	25.861084
2.3266602	24.892202
2.3291016	24.16528
2.331543	23.662157
2.3339844	23.343952
2.3364258	23.170914
2.3388672	23.112425
2.3413086	23.150043
2.34375	23.271273
2.3461914	23.457047
2.3486328	23.667944
2.3510742	23.840733
2.3535156	23.89753
2.355957	23.764118
2.3583984	23.385612
2.3608398	22.734413
2.3632812	21.811884
2.3657227	20.646406
2.368164	19.289509
2.3706055	17.809753
2.3730469	16.282558
2.3754883	14.777997
2.3779297	13.354649
2.380371	12.064097
2.3828125	10.963732
2.385254	10.13068
2.3876953	9.66277
2.3901367	9.649944
2.3925781	10.117715
2.3950195	10.987597
2.397461	12.098559
2.3999023	13.264723
2.4023438	14.32362
2.4047852	15.162547
2.4072266	15.728327
2.409668	16.027431
2.4121094	16.117556
2.4145508	16.09098
2.4169922	16.046572
2.4194336	16.058325
2.421875	16.151772
2.4243164	16.301506
2.4267578	16.450045
2.4291992	16.534204
2.4316406	16.50544
2.434082	16.335388
2.4365234	16.014587
2.4389648	15.549212
2.4414062	14.960706
2.4438477	14.286002
