
X-Axis: Frequency (hz)
Y-Axis: Fourier Amplitude (cm/s)
Number of Data Sets: 4


DATASET #1

Name: FAS H1 (cm/s)
Num Points: 2044
Info: 

X, Y Data:
0.009765625	0.18632394
0.012207031	0.24137932
0.014648438	0.30962998
0.017089844	0.40126875
0.01953125	0.52835476
0.021972656	0.70283324
0.024414062	0.9355313
0.026855469	1.235643
0.029296875	1.6102997
0.03173828	2.0643098
0.034179688	2.6001322
0.036621094	3.2181792
0.0390625	3.9172668
0.041503906	4.6949925
0.043945312	5.5486736
0.04638672	6.476323
0.048828125	7.477471
0.05126953	8.553467
0.053710938	9.707726
0.056152344	10.945843
0.05859375	12.27535
0.061035156	13.704984
0.06347656	15.243287
0.06591797	16.897377
0.068359375	18.671732
0.07080078	20.567175
0.07324219	22.579885
0.075683594	24.700903
0.078125	26.916128
0.080566406	29.206932
0.08300781	31.550537
0.08544922	33.92032
0.087890625	36.28625
0.09033203	38.61552
0.09277344	40.873356
0.095214844	43.023827
0.09765625	45.030746
0.10009766	46.85924
0.10253906	48.477882
0.10498047	49.86108
0.10742188	50.99116
0.10986328	51.860165
0.11230469	52.471157
0.11474609	52.838974
0.1171875	52.98992
0.11962891	52.96027
0.12207031	52.794098
0.12451172	52.54042
0.12695312	52.25081
0.12939453	51.976856
0.13183594	51.76795
0.13427734	51.669292
0.13671875	51.720303
0.13916016	51.953533
0.14160156	52.394
0.14404297	53.057976
0.14648438	53.95203
0.14892578	55.072197
0.15136719	56.403458
0.1538086	57.919846
0.15625	59.584988
0.1586914	61.353638
0.16113281	63.174377
0.16357422	64.99307
0.16601562	66.75704
0.16845703	68.4188
0.17089844	69.939095
0.17333984	71.28854
0.17578125	72.447845
0.17822266	73.406456
0.18066406	74.15987
0.18310547	74.70554
0.18554688	75.03884
0.18798828	75.149704
0.19042969	75.02081
0.1928711	74.627686
0.1953125	73.94062
0.1977539	72.92768
0.20019531	71.55894
0.20263672	69.80992
0.20507812	67.66418
0.20751953	65.114525
0.20996094	62.163692
0.21240234	58.826538
0.21484375	55.136597
0.21728516	51.15948
0.21972656	47.014626
0.22216797	42.90513
0.22460938	39.152084
0.22705078	36.211693
0.22949219	34.621296
0.2319336	34.814804
0.234375	36.88604
0.2368164	40.539753
0.23925781	45.281086
0.24169922	50.620518
0.24414062	56.161137
0.24658203	61.600616
0.24902344	66.70497
0.25146484	71.28178
0.25390625	75.16198
0.25634766	78.19224
0.25878906	80.23661
0.26123047	81.183464
0.26367188	80.95325
0.26611328	79.503204
0.2685547	76.82639
0.2709961	72.946205
0.2734375	67.90859
0.2758789	61.77757
0.2783203	54.64057
0.28076172	46.63416
0.28320312	38.013676
0.28564453	29.343525
0.28808594	22.053135
0.29052734	19.396086
0.29296875	23.838537
0.29541016	32.762966
0.29785156	43.238262
0.30029297	53.857735
0.30273438	63.888138
0.30517578	72.858795
0.3076172	80.433304
0.3100586	86.36221
0.3125	90.457
0.3149414	92.57204
0.3173828	92.59456
0.31982422	90.44647
0.32226562	86.09902
0.32470703	79.59782
0.32714844	71.09241
0.32958984	60.865795
0.33203125	49.369312
0.33447266	37.30166
0.33691406	25.908346
0.33935547	18.124462
0.34179688	18.851757
0.34423828	26.261845
0.3466797	35.05835
0.3491211	43.022545
0.3515625	49.33062
0.3540039	53.631973
0.3564453	55.83895
0.35888672	56.103233
0.36132812	54.8475
0.36376953	52.79803
0.36621094	50.94766
0.36865234	50.33722
0.37109375	51.61987
0.37353516	54.69365
0.37597656	58.79137
0.37841797	62.90748
0.38085938	66.15332
0.38330078	67.90242
0.3857422	67.80231
0.3881836	65.73426
0.390625	61.765144
0.3930664	56.119026
0.3955078	49.196754
0.39794922	41.686695
0.40039062	34.830986
0.40283203	30.745634
0.40527344	31.67924
0.40771484	37.588787
0.41015625	46.312798
0.41259766	55.865154
0.41503906	65.02904
0.41748047	73.12336
0.41992188	79.80157
0.42236328	84.92213
0.4248047	88.437515
0.4272461	90.29477
0.4296875	90.37021
0.4321289	88.46429
0.4345703	84.36178
0.43701172	77.9356
0.43945312	69.26335
0.44189453	58.739822
0.44433594	47.221684
0.44677734	36.3558
0.44921875	29.259315
0.45166016	29.67385
0.45410156	36.84599
0.45654297	46.72814
0.45898438	56.713936
0.46142578	65.605545
0.4638672	72.82013
0.4663086	78.03058
0.46875	81.02248
0.4711914	81.64156
0.4736328	79.78918
0.47607422	75.44513
0.47851562	68.70882
0.48095703	59.856117
0.48339844	49.437824
0.48583984	38.529404
0.48828125	29.458376
0.49072266	26.730558
0.49316406	32.86709
0.49560547	44.053837
0.49804688	56.437572
0.5004883	67.97792
0.5029297	77.43913
0.5053711	83.956856
0.5078125	86.97093
0.5102539	86.27306
0.5126953	82.07006
0.5151367	75.022026
0.5175781	66.24721
0.52001953	57.29448
0.52246094	50.01819
0.52490234	46.094498
0.52734375	46.040737
0.52978516	48.77288
0.53222656	52.54735
0.53466797	55.966507
0.5371094	58.2066
0.5395508	58.886677
0.5419922	57.925133
0.5444336	55.448368
0.546875	51.73356
0.5493164	47.164066
0.5517578	42.188236
0.5541992	37.283863
0.5566406	32.941845
0.55908203	29.674006
0.56152344	27.992687
0.56396484	28.233925
0.56640625	30.254663
0.56884766	33.358936
0.57128906	36.56532
0.57373047	38.925495
0.5761719	39.751778
0.5786133	38.791443
0.5810547	36.37995
0.5834961	33.554237
0.5859375	31.949413
0.5883789	33.01848
0.5908203	36.838535
0.5932617	42.190212
0.5957031	47.68458
0.59814453	52.355774
0.60058594	55.69847
0.60302734	57.594917
0.60546875	58.28767
0.60791016	58.3816
0.61035156	58.76346
0.61279297	60.285217
0.6152344	63.241386
0.6176758	67.04302
0.6201172	70.44115
0.6225586	72.10972
0.625	71.21131
0.6274414	67.78741
0.6298828	62.93185
0.6323242	58.602673
0.6347656	56.740837
0.63720703	57.863453
0.63964844	60.66708
0.64208984	63.28973
0.64453125	64.60952
0.64697266	64.683624
0.64941406	64.59838
0.65185547	65.89126
0.6542969	69.58623
0.6567383	75.42019
0.6591797	81.993355
0.6616211	87.569305
0.6640625	90.78612
0.6665039	91.042305
0.6689453	88.61744
0.6713867	84.55595
0.6738281	80.29446
0.67626953	77.06706
0.67871094	75.33607
0.68115234	74.661896
0.68359375	74.10564
0.68603516	72.760574
0.68847656	70.0607
0.69091797	65.874344
0.6933594	60.52751
0.6958008	54.81509
0.6982422	49.89891
0.7006836	46.84745
0.703125	45.8189
0.7055664	45.69461
0.7080078	44.773342
0.7104492	41.754364
0.7128906	36.25139
0.71533203	28.866995
0.71777344	21.037487
0.72021484	14.715154
0.72265625	11.378853
0.72509766	10.045092
0.72753906	8.57691
0.72998047	7.5753627
0.7324219	10.472126
0.7348633	16.6291
0.7373047	23.351728
0.7397461	28.993242
0.7421875	32.592636
0.7446289	33.74337
0.7470703	32.60462
0.7495117	29.8937
0.7519531	26.748922
0.75439453	24.285925
0.75683594	22.84993
0.75927734	21.71042
0.76171875	19.756802
0.76416016	16.314507
0.76660156	11.399462
0.76904297	5.6590896
0.7714844	2.411275
0.7739258	7.130529
0.7763672	12.171009
0.7788086	17.128283
0.78125	22.721865
0.7836914	29.372555
0.7861328	36.724094
0.7885742	43.887157
0.7910156	50.012737
0.79345703	54.765865
0.79589844	58.48079
0.79833984	61.883717
0.80078125	65.51542
0.80322266	69.3308
0.80566406	72.85014
0.80810547	75.63698
0.8105469	77.61476
0.8129883	79.0287
0.8154297	80.196236
0.8178711	81.296364
0.8203125	82.34297
0.8227539	83.30145
0.8251953	84.21347
0.8276367	85.211494
0.8300781	86.39203
0.83251953	87.64867
0.83496094	88.652115
0.83740234	89.05764
0.83984375	88.77421
0.84228516	88.04175
0.84472656	87.23817
0.84716797	86.6122
0.8496094	86.20553
0.8520508	85.97237
0.8544922	85.85568
0.8569336	85.69828
0.859375	85.15228
0.8618164	83.76876
0.8642578	81.20146
0.8666992	77.32631
0.8691406	72.204346
0.87158203	65.98353
0.87402344	58.842663
0.87646484	50.993725
0.87890625	42.70886
0.88134766	34.387028
0.88378906	26.75234
0.88623047	21.292034
0.8886719	20.300632
0.8911133	24.377235
0.8935547	31.403288
0.8959961	39.39185
0.8984375	47.14534
0.9008789	53.86624
0.9033203	59.05631
0.9057617	62.573353
0.9082031	64.64886
0.91064453	65.801155
0.91308594	66.690636
0.91552734	67.995804
0.91796875	70.312004
0.92041016	73.990135
0.92285156	78.92699
0.92529297	84.50766
0.9277344	89.828964
0.9301758	94.05687
0.9326172	96.67779
0.9350586	97.53521
0.9375	96.708
0.9399414	94.35553
0.9423828	90.6292
0.9448242	85.6713
0.9472656	79.66411
0.94970703	72.87936
0.95214844	65.69375
0.95458984	58.559036
0.95703125	51.94495
0.95947266	46.285694
0.96191406	41.943974
0.96435547	39.18167
0.9667969	38.142498
0.9692383	38.859695
0.9716797	41.255188
0.9741211	45.096966
0.9765625	49.960823
0.9790039	55.263695
0.9814453	60.34909
0.9838867	64.58205
0.9863281	67.4385
0.98876953	68.585106
0.99121094	67.93894
0.99365234	65.68967
0.99609375	62.284847
0.99853516	58.38012
1.0009766	54.74605
1.003418	52.090923
1.0058594	50.804302
1.0083008	50.75675
1.0107422	51.342125
1.0131836	51.741375
1.015625	51.19663
1.0180664	49.165154
1.0205078	45.35999
1.0229492	39.72949
1.0253906	32.444595
1.027832	23.983734
1.0302734	15.584455
1.0327148	11.235538
1.0351562	15.58272
1.0375977	23.410208
1.0400391	30.900908
1.0424805	37.052002
1.0449219	41.750687
1.0473633	45.29473
1.0498047	48.168835
1.0522461	50.84802
1.0546875	53.59903
1.0571289	56.328712
1.0595703	58.57399
1.0620117	59.6617
1.0644531	58.94462
1.0668945	55.9968
1.0693359	50.720142
1.0717773	43.39276
1.0742188	34.75771
1.0766602	26.38229
1.0791016	21.5855
1.081543	24.163504
1.0839844	32.481617
1.0864258	42.807575
1.0888672	53.255344
1.0913086	63.030773
1.09375	71.75767
1.0961914	79.21199
1.0986328	85.21426
1.1010742	89.60219
1.1035156	92.247665
1.105957	93.09735
1.1083984	92.21993
1.1108398	89.85687
1.1132812	86.46718
1.1157227	82.736916
1.1181641	79.49948
1.1206055	77.51727
1.1230469	77.176056
1.1254883	78.30132
1.1279297	80.27724
1.1303711	82.37484
1.1328125	84.03084
1.1352539	84.9432
1.1376953	85.00614
1.1401367	84.17441
1.1425781	82.342674
1.1450195	79.29858
1.1474609	74.760185
1.1499023	68.46359
1.1523438	60.25553
1.1547852	50.15382
1.1572266	38.36606
1.159668	25.265852
1.1621094	11.352029
1.1645508	3.3007445
1.1669922	17.248999
1.1694336	30.904716
1.171875	43.799755
1.1743164	55.7123
1.1767578	66.44072
1.1791992	75.74954
1.1816406	83.35478
1.184082	88.958466
1.1865234	92.31744
1.1889648	93.31758
1.1914062	92.019035
1.1938477	88.65659
1.1962891	83.60006
1.1987305	77.298195
1.2011719	70.23087
1.2036133	62.87906
1.2060547	55.70144
1.2084961	49.10582
1.2109375	43.41229
1.2133789	38.818104
1.2158203	35.37721
1.2182617	33.006855
1.2207031	31.540966
1.2231445	30.81827
1.2255859	30.760996
1.2280273	31.39962
1.2304688	32.84476
1.2329102	35.236637
1.2353516	38.703438
1.237793	43.324913
1.2402344	49.091774
1.2426758	55.86135
1.2451172	63.333363
1.2475586	71.059494
1.25	78.485435
1.2524414	85.01251
1.2548828	90.06439
1.2573242	93.148766
1.2597656	93.90302
1.262207	92.12046
1.2646484	87.75531
1.2670898	80.910034
1.2695312	71.81088
1.2719727	60.777386
1.2744141	48.19098
1.2768555	34.47463
1.2792969	20.112823
1.2817383	6.210363
1.2841797	10.441828
1.2866211	24.19034
1.2890625	37.362366
1.2915039	49.45203
1.2939453	60.23738
1.2963867	69.56396
1.2988281	77.27996
1.3012695	83.20667
1.3037109	87.141266
1.3061523	88.885
1.3085938	88.290634
1.3110352	85.32199
1.3134766	80.11572
1.315918	73.01904
1.3183594	64.579346
1.3208008	55.48017
1.3232422	46.442616
1.3256836	38.132774
1.328125	31.113775
1.3305664	25.859776
1.3330078	22.789564
1.3354492	22.194294
1.3378906	24.059084
1.340332	28.094923
1.3427734	33.994152
1.3452148	41.54538
1.3476562	50.563755
1.3500977	60.78779
1.3525391	71.82558
1.3549805	83.16716
1.3574219	94.24698
1.3598633	104.52103
1.3623047	113.52939
1.3647461	120.92705
1.3671875	126.48276
1.3696289	130.06093
1.3720703	131.60121
1.3745117	131.10715
1.3769531	128.64954
1.3793945	124.37766
1.3818359	118.52851
1.3842773	111.42084
1.3867188	103.42522
1.3891602	94.91281
1.3916016	86.19925
1.394043	77.498604
1.3964844	68.906395
1.3989258	60.416584
1.4013672	51.967255
1.4038086	43.500607
1.40625	35.01359
1.4086914	26.59722
1.4111328	18.512047
1.4135742	11.606374
1.4160156	9.129045
1.418457	13.661633
1.4208984	20.957308
1.4233398	28.732733
1.4257812	36.203964
1.4282227	42.826797
1.4306641	48.103004
1.4331055	51.616386
1.4355469	53.130684
1.4379883	52.71566
1.4404297	50.894413
1.4428711	48.78718
1.4453125	48.083725
1.4477539	50.472908
1.4501953	56.596046
1.4526367	65.71486
1.4550781	76.45475
1.4575195	87.51742
1.4599609	97.92671
1.4624023	107.05371
1.4648438	114.60539
1.4672852	120.61456
1.4697266	125.42439
1.472168	129.63835
1.4746094	134.00494
1.4770508	139.22893
1.4794922	145.75146
1.4819336	153.60214
1.484375	162.39825
1.4868164	171.47717
1.4892578	180.07237
1.4916992	187.45717
1.4941406	193.03168
1.496582	196.36443
1.4990234	197.20981
1.5014648	195.51431
1.5039062	191.42004
1.5063477	185.2611
1.5087891	177.5402
1.5112305	168.86519
1.5136719	159.8388
1.5161133	150.92056
1.5185547	142.30756
1.5209961	133.88902
1.5234375	125.30428
1.5258789	116.07903
1.5283203	105.7861
1.5307617	94.174576
1.5332031	81.24073
1.5356445	67.23809
1.5380859	52.65562
1.5405273	38.230366
1.5429688	25.218248
1.5454102	16.763302
1.5478516	18.18465
1.550293	26.24151
1.5527344	35.35487
1.5551758	43.785465
1.5576172	51.05535
1.5600586	56.999123
1.5625	61.54539
1.5649414	64.683235
1.5673828	66.49035
1.5698242	67.17623
1.5722656	67.11558
1.574707	66.83847
1.5771484	66.952095
1.5795898	67.974464
1.5820312	70.148026
1.5844727	73.35468
1.5869141	77.201744
1.5893555	81.20426
1.5917969	84.9409
1.5942383	88.13335
1.5966797	90.65978
1.5991211	92.53278
1.6015625	93.85942
1.6040039	94.79314
1.6064453	95.4952
1.6088867	96.11292
1.6113281	96.78094
1.6137695	97.61891
1.6162109	98.71158
1.6186523	100.06812
1.6210938	101.58794
1.6235352	103.05787
1.6259766	104.1872
1.628418	104.66868
1.6308594	104.25419
1.6333008	102.82497
1.6357422	100.43894
1.6381836	97.33243
1.640625	93.868965
1.6430664	90.44364
1.6455078	87.371284
1.6479492	84.79937
1.6503906	82.69025
1.652832	80.87684
1.6552734	79.16398
1.6577148	77.41752
1.6601562	75.61054
1.6625977	73.81528
1.6650391	72.15962
1.6674805	70.76766
1.6699219	69.70807
1.6723633	68.96434
1.6748047	68.43235
1.6772461	67.94405
1.6796875	67.30689
1.6821289	66.35153
1.6845703	64.97506
1.6870117	63.172226
1.6894531	61.04776
1.6918945	58.802853
1.6943359	56.697037
1.6967773	54.99039
1.6992188	53.882504
1.7016602	53.46929
1.7041016	53.73597
1.706543	54.591797
1.7089844	55.929195
1.7114258	57.66746
1.7138672	59.749332
1.7163086	62.091415
1.71875	64.52708
1.7211914	66.78274
1.7236328	68.50028
1.7260742	69.28639
1.7285156	68.77855
1.730957	66.7144
1.7333984	62.988556
1.7358398	57.677746
1.7382812	51.031796
1.7407227	43.455032
1.7431641	35.52769
1.7456055	28.133038
1.7480469	22.753565
1.7504883	21.41304
1.7529297	24.730982
1.7553711	30.994062
1.7578125	38.44529
1.7602539	46.095078
1.7626953	53.365215
1.7651367	59.834538
1.7675781	65.14821
1.7700195	69.011086
1.7724609	71.21751
1.7749023	71.70589
1.7773438	70.611496
1.7797852	68.301544
1.7822266	65.3754
1.784668	62.615616
1.7871094	60.86066
1.7895508	60.788246
1.7919922	62.68917
1.7944336	66.386246
1.796875	71.34512
1.7993164	76.86307
1.8017578	82.21736
1.8041992	86.75217
1.8066406	89.92956
1.809082	91.35905
1.8115234	90.81566
1.8139648	88.23816
1.8164062	83.70792
1.8188477	77.41615
1.8212891	69.64036
1.8237305	60.767708
1.8261719	51.425602
1.8286133	42.785408
1.8310547	36.975243
1.8334961	36.59855
1.8359375	42.127693
1.8383789	51.231667
1.8408203	61.369854
1.8432617	70.882835
1.8457031	78.81498
1.8481445	84.70356
1.8505859	88.48284
1.8530273	90.41496
1.8554688	90.996475
1.8579102	90.830956
1.8603516	90.48478
1.862793	90.36208
1.8652344	90.637184
1.8676758	91.27191
1.8701172	92.10935
1.8725586	92.986534
1.875	93.80217
1.8774414	94.50525
1.8798828	95.02163
1.8823242	95.17293
1.8847656	94.64512
1.887207	93.033264
1.8896484	89.93134
1.8920898	85.02163
1.8945312	78.14654
1.8969727	69.36377
1.8994141	59.01426
1.9018555	47.859097
1.9042969	37.469193
1.9067383	31.06595
1.9091797	32.745964
1.9116211	42.116272
1.9140625	55.370983
1.9165039	69.95129
1.9189453	84.56755
1.9213867	98.47627
1.9238281	111.15562
1.9262695	122.17268
1.9287109	131.14908
1.9311523	137.78822
1.9335938	141.92252
1.9360352	143.54169
1.9384766	142.7992
1.940918	140.0172
1.9433594	135.69496
1.9458008	130.49599
1.9482422	125.17617
1.9506836	120.45938
1.953125	116.90486
1.9555664	114.79918
1.9580078	114.09832
1.9604492	114.45728
1.9628906	115.37707
1.965332	116.41084
1.9677734	117.31709
1.9702148	118.10134
1.9726562	118.96001
1.9750977	120.16248
1.9775391	121.90697
1.9799805	124.20691
1.9824219	126.86067
1.9848633	129.5218
1.9873047	131.82405
1.9897461	133.5034
1.9921875	134.47124
1.9946289	134.823
1.9970703	134.78868
1.9995117	134.65062
2.0019531	134.66531
2.0043945	135.02507
2.006836	135.84772
2.0092773	137.16754
2.0117188	138.90663
2.0141602	140.84853
2.0166016	142.63063
2.019043	143.75949
2.0214844	143.6603
2.0239258	141.77246
2.0263672	137.67531
2.0288086	131.19778
2.03125	122.47974
2.0336914	111.98212
2.0361328	100.45623
2.0385742	88.88089
2.0410156	78.34532
2.043457	69.83311
2.0458984	63.906895
2.0483398	60.46032
2.0507812	58.80741
2.0532227	58.100437
2.055664	57.72657
2.0581055	57.46139
2.0605469	57.409985
2.0629883	57.83552
2.0654297	58.95139
2.067871	60.766243
2.0703125	63.055344
2.072754	65.44472
2.0751953	67.536095
2.0776367	68.99533
2.0800781	69.59018
2.0825195	69.192055
2.084961	67.7747
2.0874023	65.41474
2.0898438	62.29317
2.0922852	58.67776
2.0947266	54.892406
2.097168	51.283882
2.0996094	48.18525
2.1020508	45.862774
2.1044922	44.441357
2.1069336	43.863224
2.109375	43.934265
2.1118164	44.433918
2.1142578	45.202045
2.1166992	46.15816
2.1191406	47.270912
2.121582	48.513817
2.1240234	49.82348
2.1264648	51.071632
2.1289062	52.06828
2.1313477	52.602226
2.133789	52.501495
2.1362305	51.677063
2.1386719	50.128716
2.1411133	47.91817
2.1435547	45.131813
2.145996	41.854084
2.1484375	38.155598
2.150879	34.094513
2.1533203	29.73765
2.1557617	25.214481
2.1582031	20.820503
2.1606445	17.17546
2.163086	15.291472
2.1655273	15.938758
2.1679688	18.617569
2.1704102	22.120863
2.1728516	25.49917
2.175293	28.171055
2.1777344	29.804438
2.1801758	30.253746
2.1826172	29.532303
2.1850586	27.787663
2.1875	25.2621
2.1899414	22.251545
2.1923828	19.074598
2.1948242	16.063034
2.1972656	13.579859
2.199707	12.053359
2.2021484	11.919592
2.2045898	13.345414
2.2070312	16.085861
2.2094727	19.739954
2.211914	23.9678
2.2143555	28.516111
2.2167969	33.185406
2.2192383	37.79794
2.2216797	42.17938
2.224121	46.151623
2.2265625	49.536465
2.229004	52.164642
2.2314453	53.893173
2.2338867	54.63216
2.2363281	54.378994
2.2387695	53.248837
2.241211	51.483246
2.2436523	49.42717
2.2460938	47.46623
2.2485352	45.931606
2.2509766	44.995758
2.253418	44.611736
2.2558594	44.538876
2.2583008	44.4421
2.2607422	44.005318
2.2631836	43.008453
2.265625	41.3614
2.2680664	39.1046
2.2705078	36.3912
2.2729492	33.455654
2.2753906	30.569094
2.277832	27.981462
2.2802734	25.858839
2.2827148	24.237926
2.2851562	23.027237
2.2875977	22.059156
2.290039	21.16084
2.2924805	20.207222
2.2949219	19.144154
2.2973633	17.985853
2.2998047	16.79682
2.302246	15.666929
2.3046875	14.688172
2.307129	13.942481
2.3095703	13.490542
2.3120117	13.354058
2.3144531	13.492017
2.3168945	13.797269
2.319336	14.129114
2.3217773	14.365932
2.3242188	14.451108
2.3266602	14.416788
2.3291016	14.380982
2.331543	14.507031
2.3339844	14.920115
2.3364258	15.613837
2.3388672	16.421375
2.3413086	17.079779
2.34375	17.332066
2.3461914	16.999
2.3486328	16.004229
2.3510742	14.362704
2.3535156	12.153886
2.355957	9.494458
2.3583984	6.5266905
2.3608398	3.551447
2.3632812	2.6396983
2.3657227	5.741587
2.368164	9.926937
2.3706055	14.49894
2.3730469	19.22702
2.3754883	23.899706
2.3779297	28.314768
2.380371	32.31208
2.3828125	35.803196
2.385254	38.78777
2.3876953	41.34782
2.3901367	43.6132
2.3925781	45.703182
2.3950195	47.671238
2.397461	49.47962
2.3999023	51.01576
2.4023438	52.134693
2.4047852	52.70532
2.4072266	52.643986
2.409668	51.93529
2.4121094	50.641632
2.4145508	48.89951
2.4169922	46.900307
2.4194336	44.8599
2.421875	42.988842
2.4243164	41.469612
2.4267578	40.43354
2.4291992	39.94151
2.4316406	39.9751
2.434082	40.449993
2.4365234	41.24819
2.4389648	42.249363
2.4414062	43.349163
2.4438477	44.462162
2.446289	45.518986
2.4487305	46.463646
2.4511719	47.250916
2.4536133	47.846573
2.4560547	48.228874
2.458496	48.39493
2.4609375	48.36194
2.463379	48.161163
2.4658203	47.82279
2.4682617	47.36007
2.4707031	46.761185
2.4731445	45.991188
