
X-Axis: Frequency (hz)
Y-Axis: Fourier Amplitude (cm/s)
Number of Data Sets: 4


DATASET #1

Name: FAS H1 (cm/s)
Num Points: 2044
Info: 

X, Y Data:
0.009765625	0.050000526
0.012207031	0.07994262
0.014648438	0.11705565
0.017089844	0.17124927
0.01953125	0.25209263
0.021972656	0.35976592
0.024414062	0.49047428
0.026855469	0.6462318
0.029296875	0.8380979
0.03173828	1.0779506
0.034179688	1.3677326
0.036621094	1.699005
0.0390625	2.061599
0.041503906	2.4511054
0.043945312	2.8677366
0.04638672	3.3103554
0.048828125	3.770683
0.05126953	4.233155
0.053710938	4.681591
0.056152344	5.106616
0.05859375	5.5101233
0.061035156	5.901546
0.06347656	6.2881355
0.06591797	6.6679535
0.068359375	7.0324116
0.07080078	7.3790283
0.07324219	7.720731
0.075683594	8.081206
0.078125	8.479623
0.080566406	8.917488
0.08300781	9.381278
0.08544922	9.856993
0.087890625	10.342443
0.09033203	10.847081
0.09277344	11.377015
0.095214844	11.918439
0.09765625	12.435272
0.10009766	12.883146
0.10253906	13.230357
0.10498047	13.467861
0.10742188	13.601446
0.10986328	13.636179
0.11230469	13.566287
0.11474609	13.379836
0.1171875	13.073549
0.11962891	12.663847
0.12207031	12.186733
0.12451172	11.686516
0.12695312	11.202365
0.12939453	10.761295
0.13183594	10.379019
0.13427734	10.068018
0.13671875	9.846322
0.13916016	9.739123
0.14160156	9.773632
0.14404297	9.969107
0.14648438	10.325871
0.14892578	10.819016
0.15136719	11.39628
0.1538086	11.979995
0.15625	12.475245
0.1586914	12.778912
0.16113281	12.789338
0.16357422	12.421431
0.16601562	11.624544
0.16845703	10.405153
0.17089844	8.860455
0.17333984	7.2286153
0.17578125	5.9560647
0.17822266	5.6064982
0.18066406	6.2729726
0.18310547	7.413363
0.18554688	8.52241
0.18798828	9.369312
0.19042969	9.905513
0.1928711	10.164656
0.1953125	10.18662
0.1977539	9.969857
0.20019531	9.463953
0.20263672	8.595041
0.20507812	7.303747
0.20751953	5.576278
0.20996094	3.4937875
0.21240234	1.7081369
0.21484375	3.0080469
0.21728516	5.7986197
0.21972656	8.615227
0.22216797	11.030663
0.22460938	12.720955
0.22705078	13.431787
0.22949219	13.010994
0.2319336	11.428056
0.234375	8.774144
0.2368164	5.248641
0.23925781	1.1725193
0.24169922	3.2871027
0.24414062	7.4910393
0.24658203	11.111115
0.24902344	13.713123
0.25146484	14.940691
0.25390625	14.581261
0.25634766	12.633653
0.25878906	9.39585
0.26123047	5.779983
0.26367188	4.788415
0.26611328	7.864582
0.2685547	11.30834
0.2709961	13.542077
0.2734375	14.05985
0.2758789	12.855461
0.2783203	10.385881
0.28076172	7.6684847
0.28320312	6.3793607
0.28564453	7.2181296
0.28808594	8.490586
0.29052734	8.844982
0.29296875	7.948958
0.29541016	6.085279
0.29785156	3.9750674
0.30029297	2.8857012
0.30273438	3.5382602
0.30517578	4.597115
0.3076172	5.3687906
0.3100586	5.8388796
0.3125	6.054379
0.3149414	5.8902707
0.3173828	5.0669074
0.31982422	3.3340237
0.32226562	1.0208335
0.32470703	3.257881
0.32714844	6.8369107
0.32958984	9.76221
0.33203125	11.199723
0.33447266	10.649459
0.33691406	8.122333
0.33935547	4.369538
0.34179688	3.2401447
0.34423828	7.0869527
0.3466797	10.701133
0.3491211	12.861035
0.3515625	13.313177
0.3540039	12.255123
0.3564453	10.252292
0.35888672	8.27408
0.36132812	7.7932053
0.36376953	9.640633
0.36621094	12.713985
0.36865234	15.432221
0.37109375	16.505922
0.37353516	15.249839
0.37597656	12.266841
0.37841797	10.412283
0.38085938	12.462485
0.38330078	15.614582
0.3857422	16.62011
0.3881836	14.713881
0.390625	11.44571
0.3930664	10.287473
0.3955078	12.126209
0.39794922	13.645853
0.40039062	13.069991
0.40283203	10.881192
0.40527344	8.874273
0.40771484	8.366682
0.41015625	8.320701
0.41259766	7.3375516
0.41503906	5.3882627
0.41748047	3.4282842
0.41992188	2.678904
0.42236328	3.7163866
0.4248047	6.108327
0.4272461	8.968803
0.4296875	11.252541
0.4321289	12.363647
0.4345703	12.58872
0.43701172	12.886623
0.43945312	13.842357
0.44189453	14.946309
0.44433594	15.329477
0.44677734	14.65619
0.44921875	13.31306
0.45166016	12.014427
0.45410156	11.019966
0.45654297	9.874378
0.45898438	8.192064
0.46142578	6.2596006
0.4638672	4.602607
0.4663086	3.058416
0.46875	1.2927034
0.4711914	1.9389515
0.4736328	3.609089
0.47607422	4.127641
0.47851562	4.2215977
0.48095703	5.9092417
0.48339844	8.511703
0.48583984	10.366946
0.48828125	11.14565
0.49072266	11.652743
0.49316406	12.55538
0.49560547	13.48926
0.49804688	13.921646
0.5004883	13.915347
0.5029297	13.735794
0.5053711	13.303827
0.5078125	12.313874
0.5102539	10.635341
0.5126953	8.473371
0.5151367	6.234418
0.5175781	4.2010493
0.52001953	2.5274746
0.52246094	2.4730027
0.52490234	4.244765
0.52734375	6.123431
0.52978516	7.8317957
0.53222656	9.622902
0.53466797	11.315915
0.5371094	12.415815
0.5395508	12.851082
0.5419922	12.940361
0.5444336	12.688729
0.546875	11.79079
0.5493164	10.295923
0.5517578	8.639418
0.5541992	7.0584607
0.5566406	5.4684825
0.55908203	3.8996773
0.56152344	2.488998
0.56396484	1.1272987
0.56640625	0.4941076
0.56884766	2.0424495
0.57128906	3.5990336
0.57373047	5.111555
0.5761719	6.57559
0.5786133	7.936855
0.5810547	9.184432
0.5834961	10.341365
0.5859375	11.317218
0.5883789	11.907184
0.5908203	11.937658
0.5932617	11.345089
0.5957031	10.173159
0.59814453	8.546798
0.60058594	6.7605195
0.60302734	5.4570165
0.60546875	5.3372197
0.60791016	6.3564663
0.61035156	7.94305
0.61279297	9.546153
0.6152344	10.823128
0.6176758	11.716277
0.6201172	12.24036
0.6225586	12.389091
0.625	12.323567
0.6274414	12.306866
0.6298828	12.462566
0.6323242	12.81004
0.6347656	13.241646
0.63720703	13.465734
0.63964844	13.235446
0.64208984	12.476416
0.64453125	11.204607
0.64697266	9.513085
0.64941406	7.5900607
0.65185547	5.6314077
0.6542969	3.7612245
0.6567383	2.084095
0.6591797	0.8956416
0.6616211	1.2866217
0.6640625	2.3843062
0.6665039	3.5976627
0.6689453	4.991819
0.6713867	6.644109
0.6738281	8.534443
0.67626953	10.536559
0.67871094	12.484571
0.68115234	14.230734
0.68359375	15.623815
0.68603516	16.501215
0.68847656	16.728048
0.69091797	16.198345
0.6933594	14.86188
0.6958008	12.803042
0.6982422	10.28278
0.7006836	7.83958
0.703125	6.4791036
0.7055664	7.043694
0.7080078	8.8232155
0.7104492	10.683256
0.7128906	12.029721
0.71533203	12.630145
0.71777344	12.421889
0.72021484	11.425096
0.72265625	9.698993
0.72509766	7.345938
0.72753906	4.539864
0.72998047	1.6037316
0.7324219	1.9357979
0.7348633	4.7668486
0.7373047	7.3280997
0.7397461	9.373122
0.7421875	10.750456
0.7446289	11.405098
0.7470703	11.430282
0.7495117	11.04961
0.7519531	10.587708
0.75439453	10.408386
0.75683594	10.74809
0.75927734	11.519587
0.76171875	12.316876
0.76416016	12.695654
0.76660156	12.386764
0.76904297	11.369724
0.7714844	9.8761635
0.7739258	8.308534
0.7763672	7.127701
0.7788086	6.593694
0.78125	6.5253572
0.7836914	6.5313034
0.7861328	6.3425307
0.7885742	5.899796
0.7910156	5.290165
0.79345703	4.659089
0.79589844	4.1654625
0.79833984	3.9302783
0.80078125	3.9696262
0.80322266	4.1950545
0.80566406	4.4915476
0.80810547	4.7838707
0.8105469	5.0738993
0.8129883	5.4493365
0.8154297	6.0302176
0.8178711	6.8930244
0.8203125	8.020541
0.8227539	9.312309
0.8251953	10.649147
0.8276367	11.928461
0.8300781	13.076886
0.83251953	14.046023
0.83496094	14.774992
0.83740234	15.174039
0.83984375	15.137328
0.84228516	14.576182
0.84472656	13.473522
0.84716797	11.911281
0.8496094	10.064008
0.8520508	8.174408
0.8544922	6.4989715
0.8569336	5.2478223
0.859375	4.5496893
0.8618164	4.4658866
0.8642578	5.009845
0.8666992	6.0949583
0.8691406	7.5326695
0.87158203	9.108173
0.87402344	10.626836
0.87646484	11.921751
0.87890625	12.844322
0.88134766	13.25384
0.88378906	13.03832
0.88623047	12.147124
0.8886719	10.614333
0.8911133	8.581656
0.8935547	6.296129
0.8959961	4.148754
0.8984375	2.9274616
0.9008789	3.4809568
0.9033203	5.0406117
0.9057617	6.914243
0.9082031	8.981955
0.91064453	11.15186
0.91308594	13.211138
0.91552734	14.872611
0.91796875	15.859995
0.92041016	16.020489
0.92285156	15.388584
0.92529297	14.193624
0.9277344	12.816758
0.9301758	11.624276
0.9326172	10.780964
0.9350586	10.198096
0.9375	9.683616
0.9399414	9.18477
0.9423828	8.824123
0.9448242	8.726981
0.9472656	8.836104
0.94970703	8.901198
0.95214844	8.672553
0.95458984	8.03748
0.95703125	7.0321345
0.95947266	5.8199005
0.96191406	4.6494274
0.96435547	3.829365
0.9667969	3.6212611
0.9692383	3.959263
0.9716797	4.515666
0.9741211	5.0363736
0.9765625	5.4171352
0.9790039	5.665059
0.9814453	5.882
0.9838867	6.210076
0.9863281	6.7442236
0.98876953	7.4830775
0.99121094	8.340531
0.99365234	9.214061
0.99609375	10.042653
0.99853516	10.824191
1.0009766	11.598323
1.003418	12.368973
1.0058594	13.021522
1.0083008	13.347595
1.0107422	13.176553
1.0131836	12.521264
1.015625	11.621265
1.0180664	10.790562
1.0205078	10.170868
1.0229492	9.655154
1.0253906	9.120479
1.027832	8.703951
1.0302734	8.729204
1.0327148	9.330526
1.0351562	10.269034
1.0375977	11.212956
1.0400391	12.049541
1.0424805	12.891221
1.0449219	13.924025
1.0473633	15.22577
1.0498047	16.672031
1.0522461	18.015495
1.0546875	18.98417
1.0571289	19.358004
1.0595703	19.034391
1.0620117	18.056238
1.0644531	16.637133
1.0668945	15.115294
1.0693359	13.817089
1.0717773	12.920161
1.0742188	12.397676
1.0766602	12.177801
1.0791016	12.310117
1.081543	12.904119
1.0839844	13.940012
1.0864258	15.135833
1.0888672	16.08596
1.0913086	16.465063
1.09375	16.12681
1.0961914	15.144051
1.0986328	13.708859
1.1010742	11.99115
1.1035156	10.063648
1.105957	7.922007
1.1083984	5.6553116
1.1108398	3.5551348
1.1132812	2.1332295
1.1157227	1.805863
1.1181641	2.043789
1.1206055	2.669779
1.1230469	3.9227273
1.1254883	5.5738025
1.1279297	7.186534
1.1303711	8.4602375
1.1328125	9.283235
1.1352539	9.672924
1.1376953	9.739782
1.1401367	9.605259
1.1425781	9.363658
1.1450195	9.070266
1.1474609	8.699594
1.1499023	8.18741
1.1523438	7.4889007
1.1547852	6.637585
1.1572266	5.7616854
1.159668	4.98468
1.1621094	4.341272
1.1645508	3.778889
1.1669922	3.2445834
1.1694336	2.7568262
1.171875	2.3672204
1.1743164	2.1378844
1.1767578	2.1891344
1.1791992	2.608591
1.1816406	3.33168
1.184082	4.252717
1.1865234	5.3082294
1.1889648	6.4801517
1.1914062	7.7147646
1.1938477	8.90025
1.1962891	9.932801
1.1987305	10.709002
1.2011719	11.169221
1.2036133	11.271692
1.2060547	10.943144
1.2084961	10.185339
1.2109375	9.104665
1.2133789	8.010427
1.2158203	7.4044085
1.2182617	7.5754876
1.2207031	8.330306
1.2231445	9.211297
1.2255859	9.964492
1.2280273	10.574733
1.2304688	11.11946
1.2329102	11.691286
1.2353516	12.240781
1.237793	12.650548
1.2402344	12.80561
1.2426758	12.617981
1.2451172	12.137812
1.2475586	11.490555
1.25	10.825741
1.2524414	10.273993
1.2548828	9.839389
1.2573242	9.50604
1.2597656	9.280041
1.262207	9.156841
1.2646484	9.106061
1.2670898	8.980043
1.2695312	8.630853
1.2719727	8.002134
1.2744141	7.1321487
1.2768555	6.181374
1.2792969	5.2992644
1.2817383	4.5712953
1.2841797	4.024457
1.2866211	3.6404214
1.2890625	3.4704828
1.2915039	3.5252383
1.2939453	3.7686343
1.2963867	4.1222205
1.2988281	4.5081916
1.3012695	4.9173846
1.3037109	5.3315635
1.3061523	5.764029
1.3085938	6.2302666
1.3110352	6.7338853
1.3134766	7.28845
1.315918	7.869805
1.3183594	8.447149
1.3208008	8.977173
1.3232422	9.392459
1.3256836	9.620898
1.328125	9.573063
1.3305664	9.184167
1.3330078	8.44566
1.3354492	7.400578
1.3378906	6.1261177
1.340332	4.6749625
1.3427734	3.0515292
1.3452148	1.3406593
1.3476562	1.5316749
1.3500977	3.8134778
1.3525391	6.355614
1.3549805	8.835541
1.3574219	11.01564
1.3598633	12.711079
1.3623047	13.826111
1.3647461	14.366049
1.3671875	14.413825
1.3696289	14.091468
1.3720703	13.52575
1.3745117	12.846608
1.3769531	12.200375
1.3793945	11.73265
1.3818359	11.553783
1.3842773	11.723427
1.3867188	12.268167
1.3891602	13.17153
1.3916016	14.305321
1.394043	15.420005
1.3964844	16.22969
1.3989258	16.52715
1.4013672	16.2651
1.4038086	15.547451
1.40625	14.561169
1.4086914	13.493252
1.4111328	12.441861
1.4135742	11.399551
1.4160156	10.304881
1.418457	9.108197
1.4208984	7.837464
1.4233398	6.5876756
1.4257812	5.5095897
1.4282227	4.7951565
1.4306641	4.590969
1.4331055	4.906921
1.4355469	5.565353
1.4379883	6.371758
1.4404297	7.1967626
1.4428711	7.9532967
1.4453125	8.614869
1.4477539	9.155135
1.4501953	9.560298
1.4526367	9.85006
1.4550781	10.043151
1.4575195	10.198841
1.4599609	10.360609
1.4624023	10.518487
1.4648438	10.632913
1.4672852	10.596952
1.4697266	10.329499
1.472168	9.79597
1.4746094	9.024146
1.4770508	8.169944
1.4794922	7.440871
1.4819336	7.0584426
1.484375	7.088425
1.4868164	7.4101605
1.4892578	7.8857574
1.4916992	8.430584
1.4941406	9.075997
1.496582	9.846968
1.4990234	10.728541
1.5014648	11.660049
1.5039062	12.534628
1.5063477	13.283501
1.5087891	13.848452
1.5112305	14.198415
1.5136719	14.342247
1.5161133	14.288053
1.5185547	14.090639
1.5209961	13.817113
1.5234375	13.518149
1.5258789	13.234411
1.5283203	12.936075
1.5307617	12.577219
1.5332031	12.11624
1.5356445	11.520322
1.5380859	10.821415
1.5405273	10.077743
1.5429688	9.388685
1.5454102	8.889985
1.5478516	8.6703615
1.550293	8.753278
1.5527344	9.04835
1.5551758	9.405711
1.5576172	9.706745
1.5600586	9.893286
1.5625	10.008756
1.5649414	10.146056
1.5673828	10.388321
1.5698242	10.740458
1.5722656	11.104984
1.574707	11.348971
1.5771484	11.359498
1.5795898	11.080801
1.5820312	10.513463
1.5844727	9.688373
1.5869141	8.641684
1.5893555	7.4066653
1.5917969	6.015858
1.5942383	4.509017
1.5966797	2.9374437
1.5991211	1.345298
1.6015625	0.33626267
1.6040039	1.8631951
1.6064453	3.4210427
1.6088867	4.9275546
1.6113281	6.3364496
1.6137695	7.591039
1.6162109	8.628696
1.6186523	9.40381
1.6210938	9.870158
1.6235352	10.017493
1.6259766	9.890928
1.628418	9.59482
1.6308594	9.316133
1.6333008	9.235698
1.6357422	9.44926
1.6381836	9.921917
1.640625	10.513994
1.6430664	11.117297
1.6455078	11.659768
1.6479492	12.120543
1.6503906	12.492388
1.652832	12.741038
1.6552734	12.853155
1.6577148	12.816323
1.6601562	12.680121
1.6625977	12.534363
1.6650391	12.466909
1.6674805	12.549567
1.6699219	12.75087
1.6723633	13.002069
1.6748047	13.215143
1.6772461	13.323217
1.6796875	13.316885
1.6821289	13.183457
1.6845703	12.939317
1.6870117	12.590281
1.6894531	12.153377
1.6918945	11.689144
1.6943359	11.239807
1.6967773	10.843381
1.6992188	10.47671
1.7016602	10.064886
1.7041016	9.54636
1.706543	8.880231
1.7089844	8.091323
1.7114258	7.251207
1.7138672	6.4415035
1.7163086	5.743189
1.71875	5.1947036
1.7211914	4.788744
1.7236328	4.4966187
1.7260742	4.281366
1.7285156	4.1378307
1.730957	4.1260657
1.7333984	4.343501
1.7358398	4.8631015
1.7382812	5.6574054
1.7407227	6.5880585
1.7431641	7.48667
1.7456055	8.178116
1.7480469	8.518108
1.7504883	8.417236
1.7529297	7.8347235
1.7553711	6.830085
1.7578125	5.5636106
1.7602539	4.365705
1.7626953	3.8184378
1.7651367	4.2998753
1.7675781	5.430585
1.7700195	6.666306
1.7724609	7.7410893
1.7749023	8.527551
1.7773438	8.956832
1.7797852	9.007878
1.7822266	8.659595
1.784668	7.9413795
1.7871094	6.902669
1.7895508	5.6062694
1.7919922	4.1422086
1.7944336	2.5846179
1.796875	1.0938549
1.7993164	1.0254377
1.8017578	2.4387882
1.8041992	3.893012
1.8066406	5.285005
1.809082	6.6172495
1.8115234	7.9010186
1.8139648	9.13224
1.8164062	10.267198
1.8188477	11.234558
1.8212891	11.964474
1.8237305	12.408722
1.8261719	12.565319
1.8286133	12.491994
1.8310547	12.274668
1.8334961	12.023985
1.8359375	11.824493
1.8383789	11.701385
1.8408203	11.628822
1.8432617	11.509804
1.8457031	11.253558
1.8481445	10.787137
1.8505859	10.09859
1.8530273	9.269501
1.8554688	8.428461
1.8579102	7.764031
1.8603516	7.396032
1.862793	7.3266673
1.8652344	7.4445252
1.8676758	7.576972
1.8701172	7.6156397
1.8725586	7.476613
1.875	7.144588
1.8774414	6.6393104
1.8798828	6.001281
1.8823242	5.3366075
1.8847656	4.764931
1.887207	4.457875
1.8896484	4.505606
1.8920898	4.8479695
1.8945312	5.3105516
1.8969727	5.695144
1.8994141	5.892227
1.9018555	5.85198
1.9042969	5.6402607
1.9067383	5.419168
1.9091797	5.3989897
1.9116211	5.7265763
1.9140625	6.336423
1.9165039	7.0484266
1.9189453	7.669825
1.9213867	8.085492
1.9238281	8.259033
1.9262695	8.206891
1.9287109	7.991059
1.9311523	7.685604
1.9335938	7.3736978
1.9360352	7.1319876
1.9384766	7.010505
1.940918	6.9976015
1.9433594	7.022063
1.9458008	6.975214
1.9482422	6.7729063
1.9506836	6.396758
1.953125	5.8925614
1.9555664	5.392007
1.9580078	5.039702
1.9604492	4.952227
1.9628906	5.1218424
1.965332	5.4294844
1.9677734	5.750609
1.9702148	5.9650517
1.9726562	6.023302
1.9750977	5.87782
1.9775391	5.5129075
1.9799805	4.94183
1.9824219	4.1756115
1.9848633	3.2990146
1.9873047	2.416713
1.9897461	1.7388813
1.9921875	1.5453521
1.9946289	1.7937888
1.9970703	2.1439521
1.9995117	2.3661306
2.0019531	2.4159045
2.0043945	2.2783623
2.006836	1.9853733
2.0092773	1.588235
2.0117188	1.135329
2.0141602	0.75017077
2.0166016	0.67650753
2.019043	0.965289
2.0214844	1.369358
2.0239258	1.7976344
2.0263672	2.2364445
2.0288086	2.702931
2.03125	3.195338
2.0336914	3.678911
2.0361328	4.1268616
2.0385742	4.4968867
2.0410156	4.7695107
2.043457	4.951355
2.0458984	5.034984
2.0483398	5.0451097
2.0507812	4.9874425
2.0532227	4.859665
2.055664	4.6782756
2.0581055	4.425163
2.0605469	4.1281404
2.0629883	3.8212962
2.0654297	3.575654
2.067871	3.5052252
2.0703125	3.6487052
2.072754	3.9975512
2.0751953	4.4336
2.0776367	4.8722396
2.0800781	5.254467
2.0825195	5.5523105
2.084961	5.802185
2.0874023	6.005571
2.0898438	6.192835
2.0922852	6.352495
2.0947266	6.4469495
2.097168	6.463314
2.0996094	6.3509755
2.1020508	6.1188836
2.1044922	5.7795196
2.1069336	5.3592014
2.109375	4.937126
2.1118164	4.54534
2.1142578	4.2456436
2.1166992	4.0401487
2.1191406	3.9013565
2.121582	3.8194485
2.1240234	3.7464683
2.1264648	3.7054617
2.1289062	3.694259
2.1313477	3.7414434
2.133789	3.873547
2.1362305	4.069984
2.1386719	4.332372
2.1411133	4.6059775
2.1435547	4.872042
2.145996	5.1059375
2.1484375	5.2775173
2.150879	5.391678
2.1533203	5.413628
2.1557617	5.3453083
2.1582031	5.177345
2.1606445	4.899742
2.163086	4.5323424
2.1655273	4.0646687
2.1679688	3.5212693
2.1704102	2.914638
2.1728516	2.274133
2.175293	1.6612507
2.1777344	1.1619468
2.1801758	0.97633755
2.1826172	1.1681569
2.1850586	1.5557483
2.1875	1.9797006
2.1899414	2.4196894
2.1923828	2.8586779
2.1948242	3.298503
2.1972656	3.7271748
2.199707	4.108437
2.2021484	4.430674
2.2045898	4.645399
2.2070312	4.7382617
2.2094727	4.6887336
2.211914	4.4792395
2.2143555	4.136262
2.2167969	3.6613555
2.2192383	3.1006591
2.2216797	2.4926
2.224121	1.865486
2.2265625	1.2858889
2.229004	0.794889
2.2314453	0.5732556
2.2338867	0.72057146
2.2363281	1.0039139
2.2387695	1.2537551
2.241211	1.4245017
2.2436523	1.5162926
2.2460938	1.5066862
2.2485352	1.4246583
2.2509766	1.2881712
2.253418	1.1266336
2.2558594	1.01294
2.2583008	0.99290955
2.2607422	1.0800971
2.2631836	1.2494813
2.265625	1.4406666
2.2680664	1.6275338
2.2705078	1.8047624
2.2729492	1.9530411
2.2753906	2.076496
2.277832	2.1544352
2.2802734	2.1711166
2.2827148	2.1231837
2.2851562	2.0008519
2.2875977	1.8341157
2.290039	1.6562136
2.2924805	1.5349216
2.2949219	1.5365075
2.2973633	1.6781219
2.2998047	1.9257793
2.302246	2.2100244
2.3046875	2.4860065
2.307129	2.7086008
2.3095703	2.8587303
2.3120117	2.92171
2.3144531	2.891992
2.3168945	2.7758355
2.319336	2.576687
2.3217773	2.3212645
2.3242188	2.0357609
2.3266602	1.7696233
2.3291016	1.5802408
2.331543	1.4986145
2.3339844	1.5283288
2.3364258	1.6046493
2.3388672	1.6851379
2.3413086	1.7245947
2.34375	1.7057709
2.3461914	1.6319004
2.3486328	1.4885404
2.3510742	1.2996004
2.3535156	1.0635194
2.355957	0.8080452
2.3583984	0.5920082
2.3608398	0.52500945
2.3632812	0.6973927
2.3657227	0.98082304
2.368164	1.315767
2.3706055	1.6525334
2.3730469	2.0128877
2.3754883	2.3809733
2.3779297	2.7542603
2.380371	3.1269836
2.3828125	3.4507382
2.385254	3.7244623
2.3876953	3.9076924
2.3901367	3.9956362
2.3925781	3.9984436
2.3950195	3.9059584
2.397461	3.764487
2.3999023	3.5791497
2.4023438	3.3851085
2.4047852	3.2149987
2.4072266	3.0675344
2.409668	2.9758635
2.4121094	2.925442
2.4145508	2.938572
2.4169922	3.027334
2.4194336	3.1857123
2.421875	3.4258485
2.4243164	3.7033687
2.4267578	3.9962175
2.4291992	4.2653604
2.4316406	4.466329
2.434082	4.592647
2.4365234	4.611559
2.4389648	4.5320783
2.4414062	4.3646913
2.4438477	4.116818
2.446289	3.8346589
2.4487305	3.533385
2.4511719	3.252257
2.4536133	3.0162027
2.4560547	2.8275087
2.458496	2.7050967
