
X-Axis: Frequency (hz)
Y-Axis: Fourier Amplitude (cm/s)
Number of Data Sets: 4


DATASET #1

Name: FAS H1 (cm/s)
Num Points: 2044
Info: 

X, Y Data:
0.009765625	0.14724007
0.012207031	0.19953835
0.014648438	0.26579016
0.017089844	0.35256255
0.01953125	0.46742654
0.021972656	0.6183763
0.024414062	0.8134573
0.026855469	1.0597494
0.029296875	1.3623176
0.03173828	1.7239441
0.034179688	2.1454256
0.036621094	2.6256025
0.0390625	3.1614132
0.041503906	3.748481
0.043945312	4.3822618
0.04638672	5.0588274
0.048828125	5.774941
0.05126953	6.527838
0.053710938	7.3155265
0.056152344	8.137108
0.05859375	8.992674
0.061035156	9.882496
0.06347656	10.806429
0.06591797	11.763516
0.068359375	12.751493
0.07080078	13.765774
0.07324219	14.798478
0.075683594	15.838462
0.078125	16.87222
0.080566406	17.884876
0.08300781	18.861088
0.08544922	19.786125
0.087890625	20.647661
0.09033203	21.437788
0.09277344	22.15457
0.095214844	22.803232
0.09765625	23.397055
0.10009766	23.957993
0.10253906	24.516035
0.10498047	25.106665
0.10742188	25.766779
0.10986328	26.529514
0.11230469	27.419207
0.11474609	28.447334
0.1171875	29.610615
0.11962891	30.891937
0.12207031	32.26382
0.12451172	33.692944
0.12695312	35.144314
0.12939453	36.584175
0.13183594	37.98198
0.13427734	39.31204
0.13671875	40.554356
0.13916016	41.694393
0.14160156	42.722015
0.14404297	43.630085
0.14648438	44.413692
0.14892578	45.06909
0.15136719	45.59173
0.1538086	45.973515
0.15625	46.201153
0.1586914	46.256474
0.16113281	46.118385
0.16357422	45.765232
0.16601562	45.177303
0.16845703	44.340305
0.17089844	43.24986
0.17333984	41.916348
0.17578125	40.368515
0.17822266	38.655285
0.18066406	36.846092
0.18310547	35.030167
0.18554688	33.314617
0.18798828	31.819641
0.19042969	30.668276
0.1928711	29.969738
0.1953125	29.798214
0.1977539	30.17432
0.20019531	31.058817
0.20263672	32.362038
0.20507812	33.963623
0.20751953	35.73276
0.20996094	37.541794
0.21240234	39.272472
0.21484375	40.817135
0.21728516	42.077843
0.21972656	42.96552
0.22216797	43.39912
0.22460938	43.305897
0.22705078	42.622543
0.22949219	41.298256
0.2319336	39.2999
0.234375	36.61978
0.2368164	33.287704
0.23925781	29.391714
0.24169922	25.118443
0.24414062	20.838095
0.24658203	17.269802
0.24902344	15.599342
0.25146484	16.788034
0.25390625	20.369627
0.25634766	25.120111
0.25878906	30.105112
0.26123047	34.751064
0.26367188	38.69871
0.26611328	41.728092
0.2685547	43.7324
0.2709961	44.704117
0.2734375	44.713287
0.2758789	43.87187
0.2783203	42.288563
0.28076172	40.027206
0.28320312	37.086567
0.28564453	33.41323
0.28808594	28.945784
0.29052734	23.671936
0.29296875	17.676088
0.29541016	11.167993
0.29785156	4.597609
0.30029297	3.3554673
0.30273438	9.352803
0.30517578	15.104937
0.3076172	20.125784
0.3100586	24.3174
0.3125	27.69956
0.3149414	30.35829
0.3173828	32.39903
0.31982422	33.90298
0.32226562	34.894722
0.32470703	35.325752
0.32714844	35.074043
0.32958984	33.95701
0.33203125	31.756863
0.33447266	28.259832
0.33691406	23.316887
0.33935547	16.95837
0.34179688	9.838
0.34423828	6.9370074
0.3466797	14.32352
0.3491211	24.266245
0.3515625	33.980755
0.3540039	42.310177
0.3564453	48.370255
0.35888672	51.501328
0.36132812	51.333305
0.36376953	47.839394
0.36621094	41.355988
0.36865234	32.582745
0.37109375	22.660114
0.37353516	13.875916
0.37597656	12.163449
0.37841797	18.63408
0.38085938	26.418938
0.38330078	32.919403
0.3857422	37.423367
0.3881836	39.788284
0.390625	40.17347
0.3930664	38.928947
0.3955078	36.498768
0.39794922	33.32085
0.40039062	29.73494
0.40283203	25.919054
0.40527344	21.874786
0.40771484	17.474632
0.41015625	12.577708
0.41259766	7.297007
0.41503906	3.9225812
0.41748047	8.189553
0.41992188	14.536389
0.42236328	20.456057
0.4248047	25.05891
0.4272461	27.735394
0.4296875	28.168026
0.4321289	26.422615
0.4345703	23.03439
0.43701172	19.12464
0.43945312	16.491493
0.44189453	16.77955
0.44433594	19.502956
0.44677734	22.770441
0.44921875	25.187025
0.45166016	26.085802
0.45410156	25.297047
0.45654297	23.014616
0.45898438	19.755178
0.46142578	16.402357
0.4638672	14.255143
0.4663086	14.454791
0.46875	16.686104
0.4711914	19.611681
0.4736328	22.170073
0.47607422	23.804447
0.47851562	24.318304
0.48095703	23.768318
0.48339844	22.396933
0.48583984	20.5941
0.48828125	18.881397
0.49072266	17.833918
0.49316406	17.792938
0.49560547	18.528948
0.49804688	19.34996
0.5004883	19.566229
0.5029297	18.82312
0.5053711	17.176088
0.5078125	14.96919
0.5102539	12.579384
0.5126953	10.173652
0.5151367	7.7407985
0.5175781	5.604362
0.52001953	5.3154206
0.52246094	7.7778764
0.52490234	11.477094
0.52734375	15.534785
0.52978516	19.795462
0.53222656	24.316507
0.53466797	29.075827
0.5371094	33.84725
0.5395508	38.23282
0.5419922	41.771103
0.5444336	44.064083
0.546875	44.917103
0.5493164	44.47584
0.5517578	43.274506
0.5541992	42.05375
0.5566406	41.30967
0.55908203	40.88424
0.56152344	40.05565
0.56396484	38.05605
0.56640625	34.514183
0.56884766	29.57106
0.57128906	23.75678
0.57373047	17.817274
0.5761719	12.646376
0.5786133	9.2903805
0.5810547	8.261963
0.5834961	8.317622
0.5859375	7.8717604
0.5883789	6.495816
0.5908203	5.1494794
0.5932617	5.923559
0.5957031	8.45779
0.59814453	10.829763
0.60058594	12.042552
0.60302734	11.802711
0.60546875	10.333592
0.60791016	8.282865
0.61035156	6.599054
0.61279297	6.14857
0.6152344	7.0441413
0.6176758	9.078084
0.6201172	12.364764
0.6225586	16.90679
0.625	22.312273
0.6274414	27.9146
0.6298828	32.956745
0.6323242	36.77126
0.6347656	38.97108
0.63720703	39.60254
0.63964844	39.15494
0.64208984	38.318966
0.64453125	37.526638
0.64697266	36.59788
0.64941406	34.86683
0.65185547	31.686752
0.6542969	26.900381
0.6567383	21.082638
0.6591797	15.667335
0.6616211	12.95477
0.6640625	14.284989
0.6665039	18.050964
0.6689453	22.71121
0.6713867	27.749884
0.6738281	32.806763
0.67626953	37.400127
0.67871094	41.075905
0.68115234	43.550743
0.68359375	44.724747
0.68603516	44.654434
0.68847656	43.56882
0.69091797	41.888397
0.6933594	40.154037
0.6958008	38.850323
0.6982422	38.232464
0.7006836	38.284046
0.703125	38.814552
0.7055664	39.58733
0.7080078	40.38285
0.7104492	40.98617
0.7128906	41.163647
0.71533203	40.702057
0.71777344	39.50571
0.72021484	37.672535
0.72265625	35.49007
0.72509766	33.373734
0.72753906	31.80435
0.72998047	31.26109
0.7324219	32.09094
0.7348633	34.337936
0.7373047	37.683636
0.7397461	41.57448
0.7421875	45.440964
0.7446289	48.878555
0.7470703	51.69851
0.7495117	53.836338
0.7519531	55.2246
0.75439453	55.77198
0.75683594	55.46427
0.75927734	54.46291
0.76171875	53.0851
0.76416016	51.663776
0.76660156	50.377247
0.76904297	49.15228
0.7714844	47.700935
0.7739258	45.678005
0.7763672	42.882816
0.7788086	39.396313
0.78125	35.557606
0.7836914	31.772015
0.7861328	28.288109
0.7885742	25.15111
0.7910156	22.357256
0.79345703	19.98314
0.79589844	18.118572
0.79833984	16.710705
0.80078125	15.53381
0.80322266	14.311022
0.80566406	12.866775
0.80810547	11.291397
0.8105469	10.144439
0.8129883	10.374776
0.8154297	12.381962
0.8178711	15.589375
0.8203125	19.268526
0.8227539	22.831953
0.8251953	25.683546
0.8276367	27.225916
0.8300781	27.06215
0.83251953	25.195908
0.83496094	22.098455
0.83740234	18.665707
0.83984375	16.109724
0.84228516	15.476739
0.84472656	16.636536
0.84716797	18.369123
0.8496094	19.610834
0.8520508	20.137526
0.8544922	20.706274
0.8569336	22.630106
0.859375	26.5909
0.8618164	32.04358
0.8642578	37.931458
0.8666992	43.33831
0.8691406	47.621925
0.87158203	50.39097
0.87402344	51.512924
0.87646484	51.140778
0.87890625	49.689358
0.88134766	47.70761
0.88378906	45.65683
0.88623047	43.70192
0.8886719	41.665424
0.8911133	39.17511
0.8935547	35.89333
0.8959961	31.748505
0.8984375	27.240862
0.9008789	23.918528
0.9033203	24.286894
0.9057617	29.310036
0.9082031	37.115852
0.91064453	45.418797
0.91308594	52.68039
0.91552734	58.04956
0.91796875	61.216618
0.92041016	62.26406
0.92285156	61.480206
0.92529297	59.17427
0.9277344	55.560802
0.9301758	50.7474
0.9326172	44.815605
0.9350586	37.944435
0.9375	30.514662
0.9399414	23.16489
0.9423828	16.844862
0.9448242	12.863668
0.9472656	12.144227
0.94970703	13.605309
0.95214844	15.464578
0.95458984	16.855831
0.95703125	17.58912
0.95947266	17.838558
0.96191406	18.11841
0.96435547	19.31834
0.9667969	22.391548
0.9692383	27.685642
0.9716797	34.757835
0.9741211	42.77589
0.9765625	50.869568
0.9790039	58.297085
0.9814453	64.52457
0.9838867	69.25723
0.9863281	72.42556
0.98876953	74.13564
0.99121094	74.60631
0.99365234	74.11986
0.99609375	72.99043
0.99853516	71.53016
1.0009766	70.00243
1.003418	68.57718
1.0058594	67.31475
1.0083008	66.17275
1.0107422	65.006905
1.0131836	63.550247
1.015625	61.410637
1.0180664	58.13941
1.0205078	53.37339
1.0229492	46.980865
1.0253906	39.136536
1.027832	30.293907
1.0302734	21.086552
1.0327148	12.225661
1.0351562	4.6642265
1.0375977	4.095185
1.0400391	8.765711
1.0424805	12.256055
1.0449219	14.194411
1.0473633	14.613656
1.0498047	13.606349
1.0522461	11.29667
1.0546875	7.900786
1.0571289	4.056306
1.0595703	3.7882633
1.0620117	8.364412
1.0644531	13.483894
1.0668945	18.31128
1.0693359	22.576025
1.0717773	26.177856
1.0742188	29.11225
1.0766602	31.418861
1.0791016	33.136276
1.081543	34.264835
1.0839844	34.750294
1.0864258	34.5045
1.0888672	33.457676
1.0913086	31.608257
1.09375	29.034626
1.0961914	25.880178
1.0986328	22.377174
1.1010742	19.010971
1.1035156	16.853605
1.105957	17.45238
1.1083984	21.236042
1.1108398	26.959587
1.1132812	33.17569
1.1157227	38.846542
1.1181641	43.305225
1.1206055	46.207855
1.1230469	47.514523
1.1254883	47.450134
1.1279297	46.42651
1.1303711	44.941914
1.1328125	43.483864
1.1352539	42.44993
1.1376953	42.074062
1.1401367	42.356674
1.1425781	43.040855
1.1450195	43.683895
1.1474609	43.807526
1.1499023	43.054264
1.1523438	41.28956
1.1547852	38.641273
1.1572266	35.499355
1.159668	32.496857
1.1621094	30.440044
1.1645508	30.086191
1.1669922	31.758081
1.1694336	35.15195
1.171875	39.57137
1.1743164	44.249355
1.1767578	48.50061
1.1791992	51.77732
1.1816406	53.712536
1.184082	54.15924
1.1865234	53.197815
1.1889648	51.103054
1.1914062	48.28171
1.1938477	45.20386
1.1962891	42.343636
1.1987305	40.131218
1.2011719	38.907795
1.2036133	38.88466
1.2060547	40.12327
1.2084961	42.55243
1.2109375	46.01188
1.2133789	50.292404
1.2158203	55.153645
1.2182617	60.32744
1.2207031	65.519875
1.2231445	70.42639
1.2255859	74.75899
1.2280273	78.27901
1.2304688	80.826485
1.2329102	82.34119
1.2353516	82.87082
1.237793	82.568985
1.2402344	81.688126
1.2426758	80.57214
1.2451172	79.643234
1.2475586	79.36149
1.25	80.129425
1.2524414	82.152405
1.2548828	85.32698
1.2573242	89.24744
1.2597656	93.33593
1.262207	97.011154
1.2646484	99.813255
1.2670898	101.45055
1.2695312	101.78558
1.2719727	100.78486
1.2744141	98.461555
1.2768555	94.8357
1.2792969	89.92979
1.2817383	83.79886
1.2841797	76.57176
1.2866211	68.47262
1.2890625	59.80398
1.2915039	50.901714
1.2939453	42.09019
1.2963867	33.664677
1.2988281	25.89985
1.3012695	19.055035
1.3037109	13.344947
1.3061523	8.893629
1.3085938	5.9005294
1.3110352	5.441734
1.3134766	8.233395
1.315918	12.924853
1.3183594	18.513144
1.3208008	24.322035
1.3232422	29.758287
1.3256836	34.362827
1.328125	37.883892
1.3305664	40.286613
1.3330078	41.687374
1.3354492	42.24976
1.3378906	42.107197
1.340332	41.35091
1.3427734	40.071587
1.3452148	38.40582
1.3476562	36.552345
1.3500977	34.753365
1.3525391	33.257973
1.3549805	32.281548
1.3574219	31.97002
1.3598633	32.37345
1.3623047	33.43519
1.3647461	34.998497
1.3671875	36.82627
1.3696289	38.63676
1.3720703	40.150127
1.3745117	41.142467
1.3769531	41.4938
1.3793945	41.22624
1.3818359	40.52999
1.3842773	39.771774
1.3867188	39.458546
1.3891602	40.109226
1.3916016	42.03657
1.394043	45.178516
1.3964844	49.13387
1.3989258	53.364723
1.4013672	57.39599
1.4038086	60.92566
1.40625	63.840122
1.4086914	66.16068
1.4111328	67.95011
1.4135742	69.21816
1.4160156	69.86592
1.418457	69.693306
1.4208984	68.4545
1.4233398	65.92742
1.4257812	61.96415
1.4282227	56.515976
1.4306641	49.641445
1.4331055	41.514816
1.4355469	32.430965
1.4379883	22.802425
1.4404297	13.142762
1.4428711	4.2060084
1.4453125	5.011863
1.4477539	11.791932
1.4501953	17.163422
1.4526367	20.850037
1.4550781	22.839731
1.4575195	23.255463
1.4599609	22.333706
1.4624023	20.420012
1.4648438	17.970186
1.4672852	15.546602
1.4697266	13.745245
1.472168	12.952722
1.4746094	13.040487
1.4770508	13.460203
1.4794922	13.655399
1.4819336	13.284822
1.484375	12.219227
1.4868164	10.47121
1.4892578	8.135242
1.4916992	5.4034157
1.4941406	3.0905488
1.496582	4.3187113
1.4990234	8.2594
1.5014648	12.999294
1.5039062	18.117315
1.5063477	23.386406
1.5087891	28.58909
1.5112305	33.503582
1.5136719	37.920788
1.5161133	41.67009
1.5185547	44.64885
1.5209961	46.84605
1.5234375	48.35099
1.5258789	49.337433
1.5283203	50.014244
1.5307617	50.55147
1.5332031	51.010548
1.5356445	51.31978
1.5380859	51.311703
1.5405273	50.80327
1.5429688	49.666485
1.5454102	47.85634
1.5478516	45.385147
1.550293	42.270832
1.5527344	38.496296
1.5551758	34.01036
1.5576172	28.7698
1.5600586	22.801813
1.5625	16.282684
1.5649414	9.793161
1.5673828	6.205429
1.5698242	10.3965
1.5722656	17.558237
1.574707	25.186262
1.5771484	32.817333
1.5795898	40.299606
1.5820312	47.52165
1.5844727	54.331867
1.5869141	60.51244
1.5893555	65.78893
1.5917969	69.86722
1.5942383	72.48584
1.5966797	73.4736
1.5991211	72.8037
1.6015625	70.63031
1.6040039	67.29811
1.6064453	63.315548
1.6088867	59.28086
1.6113281	55.761734
1.6137695	53.144485
1.6162109	51.51477
1.6186523	50.645077
1.6210938	50.106503
1.6235352	49.43159
1.6259766	48.243362
1.628418	46.315475
1.6308594	43.58128
1.6333008	40.111813
1.6357422	36.08391
1.6381836	31.750237
1.640625	27.415836
1.6430664	23.422338
1.6455078	20.128635
1.6479492	17.871042
1.6503906	16.873556
1.652832	17.14058
1.6552734	18.44843
1.6577148	20.453093
1.6601562	22.78622
1.6625977	25.090681
1.6650391	27.045883
1.6674805	28.402494
1.6699219	29.01761
1.6723633	28.866858
1.6748047	28.020956
1.6772461	26.591738
1.6796875	24.672684
1.6821289	22.3149
1.6845703	19.567999
1.6870117	16.589582
1.6894531	13.822986
1.6918945	12.165705
1.6943359	12.58112
1.6967773	14.912354
1.6992188	18.056053
1.7016602	21.046448
1.7041016	23.29098
1.706543	24.470758
1.7089844	24.466343
1.7114258	23.31292
1.7138672	21.158802
1.7163086	18.218098
1.71875	14.72223
1.7211914	10.885447
1.7236328	6.9078317
1.7260742	3.182785
1.7285156	2.8108518
1.730957	6.3447533
1.7333984	10.157252
1.7358398	13.742203
1.7382812	16.909575
1.7407227	19.512957
1.7431641	21.43572
1.7456055	22.592148
1.7480469	22.93073
1.7504883	22.434187
1.7529297	21.125547
1.7553711	19.080803
1.7578125	16.460432
1.7602539	13.593279
1.7626953	11.190591
1.7651367	10.558535
1.7675781	12.636194
1.7700195	16.737597
1.7724609	21.794802
1.7749023	27.14349
1.7773438	32.38144
1.7797852	37.233784
1.7822266	41.507523
1.784668	45.08256
1.7871094	47.911892
1.7895508	50.02276
1.7919922	51.513477
1.7944336	52.54609
1.796875	53.33614
1.7993164	54.12519
1.8017578	55.1322
1.8041992	56.48883
1.8066406	58.1925
1.809082	60.108177
1.8115234	62.01805
1.8139648	63.68913
1.8164062	64.93053
1.8188477	65.626595
1.8212891	65.75053
1.8237305	65.3612
1.8261719	64.58617
1.8286133	63.59562
1.8310547	62.569584
1.8334961	61.668816
1.8359375	61.00994
1.8383789	60.653572
1.8408203	60.600597
1.8432617	60.799786
1.8457031	61.163612
1.8481445	61.590878
1.8505859	61.98641
1.8530273	62.271255
1.8554688	62.382275
1.8579102	62.261467
1.8603516	61.847218
1.862793	61.069576
1.8652344	59.851986
1.8676758	58.117832
1.8701172	55.80202
1.8725586	52.869095
1.875	49.342052
1.8774414	45.335384
1.8798828	41.07909
1.8823242	36.910816
1.8847656	33.215412
1.887207	30.298758
1.8896484	28.23114
1.8920898	26.771559
1.8945312	25.461782
1.8969727	23.819347
1.8994141	21.493494
1.9018555	18.333162
1.9042969	14.422034
1.9067383	10.210744
1.9091797	7.2143936
1.9116211	8.458966
1.9140625	13.073238
1.9165039	18.566788
1.9189453	24.011694
1.9213867	29.061232
1.9238281	33.58362
1.9262695	37.570427
1.9287109	41.08923
1.9311523	44.242184
1.9335938	47.130325
1.9360352	49.82797
1.9384766	52.37139
1.940918	54.76608
1.9433594	57.008644
1.9458008	59.115574
1.9482422	61.139454
1.9506836	63.15484
1.953125	65.21473
1.9555664	67.30287
1.9580078	69.31794
1.9604492	71.098366
1.9628906	72.47284
1.965332	73.310425
1.9677734	73.55369
1.9702148	73.2247
1.9726562	72.40378
1.9750977	71.18768
1.9775391	69.6525
1.9799805	67.838486
1.9824219	65.765
1.9848633	63.46068
1.9873047	60.98943
1.9897461	58.461403
1.9921875	56.01731
1.9946289	53.791092
1.9970703	51.862873
1.9995117	50.229797
2.0019531	48.813725
2.0043945	47.50027
2.006836	46.177746
2.0092773	44.75778
2.0117188	43.17459
2.0141602	41.381702
2.0166016	39.35781
2.019043	37.118862
2.0214844	34.72965
2.0239258	32.304764
2.0263672	30.001095
2.0288086	27.999073
2.03125	26.472528
2.0336914	25.549063
2.0361328	25.278128
2.0385742	25.622656
2.0410156	26.47623
2.043457	27.68999
2.0458984	29.092867
2.0483398	30.50864
2.0507812	31.77304
2.0532227	32.756203
2.055664	33.380974
2.0581055	33.630417
2.0605469	33.545395
2.0629883	33.21541
2.0654297	32.76921
2.067871	32.363396
2.0703125	32.161045
2.072754	32.28753
2.0751953	32.775917
2.0776367	33.53129
2.0800781	34.345383
2.0825195	34.95195
2.084961	35.093132
2.0874023	34.571476
2.0898438	33.279438
2.0922852	31.204704
2.0947266	28.417408
2.097168	25.052896
2.0996094	21.29256
2.1020508	17.34989
2.1044922	13.457094
2.1069336	9.872628
2.109375	6.9280567
2.1118164	5.1076245
2.1142578	4.756664
2.1166992	5.314122
2.1191406	5.9728637
2.121582	6.4624104
2.1240234	6.953261
2.1264648	7.8728456
2.1289062	9.622167
2.1313477	12.302919
2.133789	15.756595
2.1362305	19.741207
2.1386719	24.027563
2.1411133	28.421717
2.1435547	32.759438
2.145996	36.89304
2.1484375	40.69012
2.150879	44.04721
2.1533203	46.903248
2.1557617	49.239292
2.1582031	51.062428
2.1606445	52.383247
2.163086	53.20296
2.1655273	53.512363
2.1679688	53.30103
2.1704102	52.568253
2.1728516	51.334976
2.175293	49.653908
2.1777344	47.612103
2.1801758	45.313416
2.1826172	42.847878
2.1850586	40.264755
2.1875	37.566746
2.1899414	34.7263
2.1923828	31.71448
2.1948242	28.528479
2.1972656	25.207577
2.199707	21.832579
2.2021484	18.509947
2.2045898	15.349154
2.2070312	12.438925
2.2094727	9.831517
2.211914	7.5388026
2.2143555	5.5448594
2.2167969	3.8260562
2.2192383	2.3694086
2.2216797	1.1866958
2.224121	0.40716693
2.2265625	0.6222067
2.229004	1.035386
2.2314453	1.3987089
2.2338867	1.9139662
2.2363281	2.7601757
2.2387695	3.9561718
2.241211	5.413738
2.2436523	7.004922
2.2460938	8.590966
2.2485352	10.039804
2.2509766	11.243443
2.253418	12.134309
2.2558594	12.700058
2.2583008	12.997079
2.2607422	13.155508
2.2631836	13.361263
2.265625	13.804034
2.2680664	14.601495
2.2705078	15.75556
2.2729492	17.178038
2.2753906	18.7516
2.277832	20.377062
2.2802734	21.988981
2.2827148	23.550543
2.2851562	25.039862
2.2875977	26.433975
2.290039	27.698683
2.2924805	28.788883
2.2949219	29.658823
2.2973633	30.274185
2.2998047	30.619345
2.302246	30.694826
2.3046875	30.510044
2.307129	30.073664
2.3095703	29.390408
2.3120117	28.465347
2.3144531	27.311676
2.3168945	25.960348
2.319336	24.469193
2.3217773	22.930668
2.3242188	21.474228
2.3266602	20.260036
2.3291016	19.460169
2.331543	19.223104
2.3339844	19.626078
2.3364258	20.642307
2.3388672	22.150517
2.3413086	23.979803
2.34375	25.954676
2.3461914	27.921926
2.3486328	29.760254
2.3510742	31.380842
2.3535156	32.724392
2.355957	33.754936
2.3583984	34.453514
2.3608398	34.81356
2.3632812	34.840954
2.3657227	34.560604
2.368164	34.023388
2.3706055	33.307095
2.3730469	32.508717
2.3754883	31.725504
2.3779297	31.033897
2.380371	30.473787
2.3828125	30.045305
2.385254	29.71637
2.3876953	29.436356
2.3901367	29.144472
2.3925781	28.770899
2.3950195	28.238518
2.397461	27.4743
2.3999023	26.434008
2.4023438	25.127241
2.4047852	23.629232
2.4072266	22.071663
2.409668	20.60796
2.4121094	19.35948
2.4145508	18.36081
2.4169922	17.540743
2.4194336	16.75675
2.421875	15.860106
2.4243164	14.750177
2.4267578	13.397644
2.4291992	11.841171
2.4316406	10.171252
2.434082	8.512887
2.4365234	7.0196958
2.4389648	5.8813725
2.4414062	5.314122
2.4438477	5.4539814
2.446289	6.225631
2.4487305	7.4276757
2.4511719	8.882164
2.4536133	10.463455
2.4560547	12.078088
