
X-Axis: Frequency (hz)
Y-Axis: Fourier Amplitude (cm/s)
Number of Data Sets: 4


DATASET #1

Name: FAS H1 (cm/s)
Num Points: 2044
Info: 

X, Y Data:
0.009765625	0.17784843
0.012207031	0.24032083
0.014648438	0.3050621
0.017089844	0.37138748
0.01953125	0.44223222
0.021972656	0.5256012
0.024414062	0.6373153
0.026855469	0.794985
0.029296875	1.0056229
0.03173828	1.2639378
0.034179688	1.557789
0.036621094	1.8690007
0.0390625	2.174668
0.041503906	2.4550903
0.043945312	2.7015326
0.04638672	2.9173052
0.048828125	3.1162894
0.05126953	3.3215797
0.053710938	3.5575345
0.056152344	3.8349369
0.05859375	4.144066
0.061035156	4.4609013
0.06347656	4.754439
0.06591797	4.9913354
0.068359375	5.1451817
0.07080078	5.2074656
0.07324219	5.1887517
0.075683594	5.1106524
0.078125	5.001521
0.080566406	4.8978176
0.08300781	4.8381386
0.08544922	4.8480377
0.087890625	4.934576
0.09033203	5.0977263
0.09277344	5.3403354
0.095214844	5.6634173
0.09765625	6.0567756
0.10009766	6.4991717
0.10253906	6.968056
0.10498047	7.447962
0.10742188	7.9318633
0.10986328	8.421273
0.11230469	8.929293
0.11474609	9.475895
0.1171875	10.06753
0.11962891	10.677552
0.12207031	11.25003
0.12451172	11.720128
0.12695312	12.028494
0.12939453	12.126278
0.13183594	11.985051
0.13427734	11.612395
0.13671875	11.054923
0.13916016	10.37814
0.14160156	9.638351
0.14404297	8.868837
0.14648438	8.080755
0.14892578	7.2654896
0.15136719	6.402451
0.1538086	5.487705
0.15625	4.578688
0.1586914	3.832128
0.16113281	3.4913518
0.16357422	3.7152562
0.16601562	4.3936195
0.16845703	5.309348
0.17089844	6.3277225
0.17333984	7.4010153
0.17578125	8.509099
0.17822266	9.605945
0.18066406	10.607082
0.18310547	11.416901
0.18554688	11.960947
0.18798828	12.198662
0.19042969	12.123087
0.1928711	11.764384
0.1953125	11.199549
0.1977539	10.5591
0.20019531	10.028049
0.20263672	9.838756
0.20507812	10.225046
0.20751953	11.314838
0.20996094	13.052503
0.21240234	15.242911
0.21484375	17.642908
0.21728516	20.016106
0.21972656	22.157217
0.22216797	23.909922
0.22460938	25.178085
0.22705078	25.919214
0.22949219	26.121946
0.2319336	25.787432
0.234375	24.933111
0.2368164	23.615494
0.23925781	21.951988
0.24169922	20.126484
0.24414062	18.378202
0.24658203	16.975424
0.24902344	16.163095
0.25146484	16.078772
0.25390625	16.685204
0.25634766	17.787998
0.25878906	19.116522
0.26123047	20.395668
0.26367188	21.392485
0.26611328	21.953379
0.2685547	22.028196
0.2709961	21.663933
0.2734375	20.964384
0.2758789	20.03392
0.2783203	18.934145
0.28076172	17.674183
0.28320312	16.23829
0.28564453	14.63973
0.28808594	12.981735
0.29052734	11.493405
0.29296875	10.48079
0.29541016	10.144512
0.29785156	10.405595
0.30029297	10.990446
0.30273438	11.642737
0.30517578	12.195334
0.3076172	12.537876
0.3100586	12.604804
0.3125	12.413256
0.3149414	12.1131
0.3173828	11.993984
0.31982422	12.385123
0.32226562	13.44846
0.32470703	15.050421
0.32714844	16.84985
0.32958984	18.457813
0.33203125	19.539635
0.33447266	19.88699
0.33691406	19.505516
0.33935547	18.695162
0.34179688	18.025127
0.34423828	18.08922
0.3466797	19.131496
0.3491211	20.934912
0.3515625	23.058435
0.3540039	25.061312
0.3564453	26.600416
0.35888672	27.497255
0.36132812	27.777853
0.36376953	27.632584
0.36621094	27.301334
0.36865234	26.956047
0.37109375	26.646397
0.37353516	26.307981
0.37597656	25.799162
0.37841797	24.962818
0.38085938	23.725067
0.38330078	22.19447
0.3857422	20.670038
0.3881836	19.492456
0.390625	18.827114
0.3930664	18.602446
0.3955078	18.64255
0.39794922	18.769978
0.40039062	18.787205
0.40283203	18.450403
0.40527344	17.492447
0.40771484	15.678533
0.41015625	12.89586
0.41259766	9.233705
0.41503906	4.9537034
0.41748047	0.9370969
0.41992188	5.023097
0.42236328	10.232362
0.4248047	15.279228
0.4272461	19.489319
0.4296875	22.211079
0.4321289	23.109585
0.4345703	22.279905
0.43701172	20.102087
0.43945312	16.977228
0.44189453	13.269154
0.44433594	9.817338
0.44677734	8.863093
0.44921875	11.512983
0.45166016	15.220978
0.45410156	18.05763
0.45654297	19.413279
0.45898438	19.368835
0.46142578	18.236755
0.4638672	16.266052
0.4663086	13.62532
0.46875	10.589978
0.4711914	7.7179985
0.4736328	5.847788
0.47607422	5.4921045
0.47851562	6.009889
0.48095703	6.6094556
0.48339844	7.029916
0.48583984	7.154689
0.48828125	6.735341
0.49072266	5.47787
0.49316406	3.6104333
0.49560547	3.8636575
0.49804688	7.465464
0.5004883	11.60431
0.5029297	14.973634
0.5053711	16.907253
0.5078125	17.0796
0.5102539	15.415206
0.5126953	12.082621
0.5151367	7.583559
0.5175781	3.2311654
0.52001953	4.197918
0.52246094	7.7470217
0.52490234	10.122289
0.52734375	10.851261
0.52978516	10.044415
0.53222656	8.173731
0.53466797	6.0681133
0.5371094	4.8446484
0.5395508	4.819429
0.5419922	4.853759
0.5444336	4.483324
0.546875	5.10785
0.5493164	7.7596865
0.5517578	11.120398
0.5541992	13.872024
0.5566406	15.299935
0.55908203	15.211974
0.56152344	13.830068
0.56396484	11.633311
0.56640625	9.206595
0.56884766	7.2241187
0.57128906	6.6116295
0.57373047	7.9282784
0.5761719	10.371922
0.5786133	12.783424
0.5810547	14.349531
0.5834961	14.731896
0.5859375	14.196795
0.5883789	13.594115
0.5908203	13.831352
0.5932617	14.939421
0.5957031	16.03131
0.59814453	16.153893
0.60058594	14.781228
0.60302734	11.880755
0.60546875	7.868773
0.60791016	3.7335415
0.61035156	3.056391
0.61279297	5.7491264
0.6152344	7.5361943
0.6176758	7.875255
0.6201172	7.167801
0.6225586	6.301439
0.625	6.1303697
0.6274414	6.7107196
0.6298828	7.50442
0.6323242	8.114826
0.6347656	8.5317745
0.63720703	9.240097
0.63964844	10.851361
0.64208984	13.173892
0.64453125	15.19412
0.64697266	15.881643
0.64941406	14.77935
0.65185547	12.284434
0.6542969	9.662109
0.6567383	8.4135895
0.6591797	8.560873
0.6616211	8.845453
0.6640625	8.676607
0.6665039	8.061841
0.6689453	6.885834
0.6713867	4.9156075
0.6738281	2.2266197
0.67626953	0.8369274
0.67871094	3.5043457
0.68115234	5.76979
0.68359375	7.8362265
0.68603516	10.06685
0.68847656	12.572859
0.69091797	15.168719
0.6933594	17.4837
0.6958008	19.077568
0.6982422	19.676455
0.7006836	19.451
0.703125	18.974722
0.7055664	18.654364
0.7080078	18.251345
0.7104492	17.287563
0.7128906	15.746933
0.71533203	14.088565
0.71777344	12.605785
0.72021484	11.065595
0.72265625	9.179107
0.72509766	7.0594263
0.72753906	5.133582
0.72998047	4.3092384
0.7324219	5.8520284
0.7348633	8.909772
0.7373047	11.91369
0.7397461	13.788645
0.7421875	13.981022
0.7446289	12.477612
0.7470703	9.725057
0.7495117	6.7000074
0.7519531	5.491133
0.75439453	7.204509
0.75683594	9.529785
0.75927734	11.416779
0.76171875	13.615842
0.76416016	17.261787
0.76660156	22.196777
0.76904297	27.13391
0.7714844	30.743807
0.7739258	32.1779
0.7763672	31.153568
0.7788086	27.889704
0.78125	23.018734
0.7836914	17.498674
0.7861328	12.568894
0.7885742	9.9942
0.7910156	11.573824
0.79345703	16.543987
0.79589844	23.064564
0.79833984	29.69758
0.80078125	35.282078
0.80322266	39.141727
0.80566406	41.24003
0.80810547	42.004246
0.8105469	41.953217
0.8129883	41.411526
0.8154297	40.387913
0.8178711	38.56026
0.8203125	35.49973
0.8227539	31.215693
0.8251953	26.632242
0.8276367	23.268162
0.8300781	21.741055
0.83251953	20.911005
0.83496094	19.391672
0.83740234	16.846045
0.83984375	13.741931
0.84228516	10.648662
0.84472656	7.8536987
0.84716797	5.3673882
0.8496094	2.994218
0.8520508	0.49626097
0.8544922	2.8272712
0.8569336	6.478973
0.859375	10.312029
0.8618164	13.780733
0.8642578	16.320728
0.8666992	17.527655
0.8691406	17.31318
0.87158203	15.98498
0.87402344	14.219705
0.87646484	12.879846
0.87890625	12.552793
0.88134766	13.078555
0.88378906	13.806876
0.88623047	14.20098
0.8886719	14.051723
0.8911133	13.405779
0.8935547	12.446333
0.8959961	11.413857
0.8984375	10.563173
0.9008789	10.078494
0.9033203	9.931196
0.9057617	9.858554
0.9082031	9.546623
0.91064453	8.865832
0.91308594	8.156468
0.91552734	8.511967
0.91796875	10.884975
0.92041016	14.679171
0.92285156	18.64136
0.92529297	21.746986
0.9277344	23.3738
0.9301758	23.34683
0.9326172	21.905382
0.9350586	19.562592
0.9375	16.852842
0.9399414	14.030398
0.9423828	10.938331
0.9448242	7.2776475
0.9472656	3.6059062
0.94970703	5.2394266
0.95214844	10.804526
0.95458984	16.673018
0.95703125	21.993677
0.95947266	26.294085
0.96191406	29.257462
0.96435547	30.765614
0.9667969	31.050045
0.9692383	30.780945
0.9716797	30.870441
0.9741211	31.952589
0.9765625	33.948826
0.9790039	36.15937
0.9814453	37.677162
0.9838867	37.73969
0.9863281	35.942154
0.98876953	32.317154
0.99121094	27.257793
0.99365234	21.339333
0.99609375	15.160404
0.99853516	9.28935
1.0009766	4.394283
1.003418	2.5640123
1.0058594	4.424615
1.0083008	5.81176
1.0107422	5.967802
1.0131836	4.9900894
1.015625	3.2784631
1.0180664	1.4385072
1.0205078	0.39749408
1.0229492	0.79746723
1.0253906	1.3458354
1.027832	3.0099986
1.0302734	5.447953
1.0327148	7.95361
1.0351562	9.897071
1.0375977	10.874821
1.0400391	10.87694
1.0424805	10.3624
1.0449219	10.147119
1.0473633	10.985595
1.0498047	13.077358
1.0522461	16.110832
1.0546875	19.598215
1.0571289	23.08978
1.0595703	26.367678
1.0620117	29.56649
1.0644531	33.040527
1.0668945	36.99927
1.0693359	41.2225
1.0717773	45.127415
1.0742188	48.066437
1.0766602	49.58515
1.0791016	49.510765
1.081543	47.904636
1.0839844	44.98382
1.0864258	41.089977
1.0888672	36.68433
1.0913086	32.280697
1.09375	28.283047
1.0961914	24.825043
1.0986328	21.778324
1.1010742	18.949333
1.1035156	16.301632
1.105957	14.087209
1.1083984	12.903887
1.1108398	13.538773
1.1132812	16.36259
1.1157227	21.017464
1.1181641	26.784224
1.1206055	32.847404
1.1230469	38.43826
1.1254883	43.029015
1.1279297	46.47372
1.1303711	48.96399
1.1328125	50.819088
1.1352539	52.304016
1.1376953	53.630264
1.1401367	55.042953
1.1425781	56.775887
1.1450195	58.86943
1.1474609	61.083508
1.1499023	63.051292
1.1523438	64.533295
1.1547852	65.54804
1.1572266	66.28987
1.159668	66.91721
1.1621094	67.392136
1.1645508	67.49184
1.1669922	66.93468
1.1694336	65.47645
1.171875	62.93753
1.1743164	59.24017
1.1767578	54.49547
1.1791992	49.044357
1.1816406	43.35199
1.184082	37.811695
1.1865234	32.670696
1.1889648	28.159199
1.1914062	24.618118
1.1938477	22.325375
1.1962891	21.128695
1.1987305	20.437399
1.2011719	19.675732
1.2036133	18.629383
1.2060547	17.436865
1.2084961	16.38235
1.2109375	15.687875
1.2133789	15.473511
1.2158203	15.863683
1.2182617	16.971287
1.2207031	18.65946
1.2231445	20.432667
1.2255859	21.661043
1.2280273	21.8895
1.2304688	20.986738
1.2329102	19.094784
1.2353516	16.464909
1.237793	13.350812
1.2402344	10.124722
1.2426758	7.690374
1.2451172	7.559336
1.2475586	9.584125
1.25	12.025023
1.2524414	13.840866
1.2548828	14.66016
1.2573242	14.453935
1.2597656	13.398689
1.262207	11.818742
1.2646484	10.125103
1.2670898	8.698659
1.2695312	7.7426786
1.2719727	7.254648
1.2744141	7.156839
1.2768555	7.352739
1.2792969	7.65181
1.2817383	7.798512
1.2841797	7.626257
1.2866211	7.2141733
1.2890625	7.0539546
1.2915039	8.017661
1.2939453	10.524227
1.2963867	14.077382
1.2988281	17.906454
1.3012695	21.379059
1.3037109	24.121834
1.3061523	26.048115
1.3085938	27.317694
1.3110352	28.26026
1.3134766	29.273918
1.315918	30.66189
1.3183594	32.44303
1.3208008	34.31743
1.3232422	35.860104
1.3256836	36.77097
1.328125	36.983364
1.3305664	36.594597
1.3330078	35.729626
1.3354492	34.484875
1.3378906	32.98933
1.340332	31.479218
1.3427734	30.263456
1.3452148	29.583656
1.3476562	29.490343
1.3500977	29.818413
1.3525391	30.239006
1.3549805	30.356348
1.3574219	29.856068
1.3598633	28.656523
1.3623047	26.96051
1.3647461	25.15146
1.3671875	23.590216
1.3696289	22.455683
1.3720703	21.745234
1.3745117	21.370325
1.3769531	21.210186
1.3793945	21.095133
1.3818359	20.808289
1.3842773	20.147724
1.3867188	19.004997
1.3891602	17.402912
1.3916016	15.491873
1.394043	13.535693
1.3964844	11.872144
1.3989258	10.758079
1.4013672	10.117272
1.4038086	9.507561
1.40625	8.424934
1.4086914	6.588301
1.4111328	4.0884566
1.4135742	2.2710807
1.4160156	4.5209355
1.418457	8.068189
1.4208984	11.411843
1.4233398	14.093945
1.4257812	15.877168
1.4282227	16.716372
1.4306641	16.771254
1.4331055	16.37545
1.4355469	15.941183
1.4379883	15.821824
1.4404297	16.186796
1.4428711	16.964018
1.4453125	17.864702
1.4477539	18.485641
1.4501953	18.45892
1.4526367	17.587023
1.4550781	15.908701
1.4575195	13.688441
1.4599609	11.372756
1.4624023	9.530301
1.4648438	8.6534605
1.4672852	8.738476
1.4697266	9.269081
1.472168	9.75557
1.4746094	9.9946995
1.4770508	9.983245
1.4794922	9.805593
1.4819336	9.612028
1.484375	9.641421
1.4868164	10.15255
1.4892578	11.245672
1.4916992	12.791873
1.4941406	14.55884
1.496582	16.346722
1.4990234	18.021524
1.5014648	19.494925
1.5039062	20.712778
1.5063477	21.677265
1.5087891	22.479256
1.5112305	23.29812
1.5136719	24.339378
1.5161133	25.722607
1.5185547	27.387125
1.5209961	29.08685
1.5234375	30.483736
1.5258789	31.284676
1.5283203	31.360603
1.5307617	30.813074
1.5332031	29.971848
1.5356445	29.30778
1.5380859	29.253456
1.5405273	29.986742
1.5429688	31.336208
1.5454102	32.898045
1.5478516	34.25041
1.550293	35.109703
1.5527344	35.389454
1.5551758	35.18682
1.5576172	34.727577
1.5600586	34.28291
1.5625	34.067295
1.5649414	34.14925
1.5673828	34.42756
1.5698242	34.699413
1.5722656	34.774784
1.574707	34.56749
1.5771484	34.12189
1.5795898	33.576523
1.5820312	33.087936
1.5844727	32.74872
1.5869141	32.54093
1.5893555	32.351162
1.5917969	32.035053
1.5942383	31.482082
1.5966797	30.646908
1.5991211	29.542994
1.6015625	28.220564
1.6040039	26.75429
1.6064453	25.241087
1.6088867	23.798313
1.6113281	22.55067
1.6137695	21.609823
1.6162109	21.05204
1.6186523	20.900402
1.6210938	21.111872
1.6235352	21.580841
1.6259766	22.160923
1.628418	22.696215
1.6308594	23.052193
1.6333008	23.142597
1.6357422	22.956388
1.6381836	22.574892
1.640625	22.15045
1.6430664	21.828674
1.6455078	21.651289
1.6479492	21.523306
1.6503906	21.275406
1.652832	20.756449
1.6552734	19.882229
1.6577148	18.633316
1.6601562	17.038687
1.6625977	15.16787
1.6650391	13.139445
1.6674805	11.152817
1.6699219	9.543248
1.6723633	8.764494
1.6748047	9.078851
1.6772461	10.236384
1.6796875	11.779208
1.6821289	13.456621
1.6845703	15.280137
1.6870117	17.379597
1.6894531	19.824547
1.6918945	22.516031
1.6943359	25.19282
1.6967773	27.509735
1.6992188	29.133667
1.7016602	29.825882
1.7041016	29.500252
1.706543	28.255219
1.7089844	26.383968
1.7114258	24.36134
1.7138672	22.772402
1.7163086	22.118618
1.71875	22.547829
1.7211914	23.77837
1.7236328	25.332026
1.7260742	26.791407
1.7285156	27.888472
1.730957	28.477388
1.7333984	28.49109
1.7358398	27.91872
1.7382812	26.806047
1.7407227	25.262245
1.7431641	23.464985
1.7456055	21.653067
1.7480469	20.0989
1.7504883	19.045416
1.7529297	18.621996
1.7553711	18.789005
1.7578125	19.371435
1.7602539	20.154158
1.7626953	20.969149
1.7651367	21.739332
1.7675781	22.483543
1.7700195	23.289814
1.7724609	24.260979
1.7749023	25.44667
1.7773438	26.798512
1.7797852	28.169392
1.7822266	29.356247
1.784668	30.161146
1.7871094	30.452364
1.7895508	30.208227
1.7919922	29.525066
1.7944336	28.568386
1.796875	27.473625
1.7993164	26.2543
1.8017578	24.786137
1.8041992	22.88412
1.8066406	20.409086
1.809082	17.338465
1.8115234	13.779573
1.8139648	9.947858
1.8164062	6.166393
1.8188477	3.2141197
1.8212891	3.6396217
1.8237305	6.409296
1.8261719	9.35913
1.8286133	12.130279
1.8310547	14.650079
1.8334961	16.880777
1.8359375	18.77565
1.8383789	20.268742
1.8408203	21.28498
1.8432617	21.762665
1.8457031	21.683245
1.8481445	21.096418
1.8505859	20.138817
1.8530273	19.04698
1.8554688	18.154743
1.8579102	17.839935
1.8603516	18.383785
1.862793	19.818434
1.8652344	21.919424
1.8676758	24.337591
1.8701172	26.718878
1.8725586	28.766085
1.875	30.272581
1.8774414	31.150864
1.8798828	31.44041
1.8823242	31.269783
1.8847656	30.786232
1.887207	30.08641
1.8896484	29.197922
1.8920898	28.11391
1.8945312	26.84296
1.8969727	25.423254
1.8994141	23.880684
1.9018555	22.17203
1.9042969	20.183582
1.9067383	17.820425
1.9091797	15.139124
1.9116211	12.452597
1.9140625	10.35165
1.9165039	9.491147
1.9189453	9.992955
1.9213867	11.321619
1.9238281	12.963554
1.9262695	14.711222
1.9287109	16.506636
1.9311523	18.273432
1.9335938	19.873251
1.9360352	21.159084
1.9384766	22.05368
1.940918	22.592434
1.9433594	22.910986
1.9458008	23.178265
1.9482422	23.494877
1.9506836	23.810966
1.953125	23.925755
1.9555664	23.574518
1.9580078	22.54041
1.9604492	20.728252
1.9628906	18.17747
1.965332	15.03099
1.9677734	11.488908
1.9702148	7.776413
1.9726562	4.157313
1.9750977	1.4147565
1.9775391	2.9115036
1.9799805	5.1654644
1.9824219	6.7918763
1.9848633	7.748429
1.9873047	8.253812
1.9897461	8.721998
1.9921875	9.566869
1.9946289	10.900391
1.9970703	12.476613
1.9995117	13.930654
2.0019531	15.005772
2.0043945	15.659552
2.006836	16.07435
2.0092773	16.565351
2.0117188	17.391731
2.0141602	18.586912
2.0166016	19.968561
2.019043	21.30016
2.0214844	22.434263
2.0239258	23.350693
2.0263672	24.099705
2.0288086	24.711597
2.03125	25.138407
2.0336914	25.26706
2.0361328	24.985762
2.0385742	24.253647
2.0410156	23.13531
2.043457	21.793093
2.0458984	20.44481
2.0483398	19.301172
2.0507812	18.496561
2.0532227	18.040909
2.055664	17.823133
2.0581055	17.663084
2.0605469	17.380287
2.0629883	16.84391
2.0654297	15.994267
2.067871	14.844242
2.0703125	13.4649
2.072754	11.964703
2.0751953	10.467585
2.0776367	9.095687
2.0800781	7.955046
2.0825195	7.121686
2.084961	6.6360464
2.0874023	6.5234685
2.0898438	6.8141937
2.0922852	7.511876
2.0947266	8.534426
2.097168	9.710254
2.0996094	10.83073
2.1020508	11.708059
2.1044922	12.214095
2.1069336	12.299253
2.109375	11.991788
2.1118164	11.374922
2.1142578	10.545973
2.1166992	9.571746
2.1191406	8.460735
2.121582	7.1686234
2.1240234	5.6310034
2.1264648	3.803981
2.1289062	1.6942528
2.1313477	0.7126391
2.133789	3.173413
2.1362305	5.672706
2.1386719	8.049407
2.1411133	10.164854
2.1435547	11.895642
2.145996	13.148117
2.1484375	13.870423
2.150879	14.057387
2.1533203	13.747254
2.1557617	13.015155
2.1582031	11.964318
2.1606445	10.713943
2.163086	9.383408
2.1655273	8.078425
2.1679688	6.8848176
2.1704102	5.8730307
2.1728516	5.1030893
2.175293	4.6178637
2.1777344	4.4117126
2.1801758	4.397945
2.1826172	4.427207
2.1850586	4.344463
2.1875	4.036703
2.1899414	3.4511278
2.1923828	2.5939736
2.1948242	1.5196384
2.1972656	0.3135913
2.199707	0.92864925
2.2021484	2.1201541
2.2045898	3.2037928
2.2070312	4.1574574
2.2094727	4.988834
2.211914	5.722645
2.2143555	6.3883743
2.2167969	7.011002
2.2192383	7.6065874
2.2216797	8.180728
2.224121	8.728935
2.2265625	9.238416
2.229004	9.685384
2.2314453	10.032288
2.2338867	10.229115
2.2363281	10.22575
2.2387695	9.996202
2.241211	9.568898
2.2436523	9.056752
2.2460938	8.662909
2.2485352	8.620353
2.2509766	9.044405
2.253418	9.831644
2.2558594	10.740499
2.2583008	11.541553
2.2607422	12.099656
2.2631836	12.387006
2.265625	12.464273
2.2680664	12.449341
2.2705078	12.474204
2.2729492	12.637627
2.2753906	12.97308
2.277832	13.449942
2.2802734	13.996284
2.2827148	14.520316
2.2851562	14.922052
2.2875977	15.102438
2.290039	14.975145
2.2924805	14.478004
2.2949219	13.580679
2.2973633	12.289114
2.2998047	10.64744
2.302246	8.739531
2.3046875	6.6949687
2.307129	4.7126412
2.3095703	3.1540751
2.3120117	2.6546438
2.3144531	3.2450337
2.3168945	4.066977
2.319336	4.663732
2.3217773	4.946625
2.3242188	4.986678
2.3266602	4.928659
2.3291016	4.913245
2.331543	4.9950557
2.3339844	5.1180763
2.3364258	5.1702976
2.3388672	5.058065
2.3413086	4.7421637
2.34375	4.239098
2.3461914	3.6044216
2.3486328	2.911384
2.3510742	2.2270615
2.3535156	1.5924383
2.355957	1.0163695
2.3583984	0.5127664
2.3608398	0.35419407
2.3632812	0.7322866
2.3657227	1.1422544
2.368164	1.4518834
2.3706055	1.6092203
2.3730469	1.5857226
2.3754883	1.3759167
2.3779297	1.0060933
2.380371	0.5796435
2.3828125	0.5576882
2.385254	1.078903
2.3876953	1.6732844
2.3901367	2.2019708
2.3925781	2.6136506
2.3950195	2.8912516
2.397461	3.044577
2.3999023	3.1051457
2.4023438	3.1167872
2.4047852	3.124402
2.4072266	3.1602848
2.409668	3.2323706
2.4121094	3.318499
2.4145508	3.370445
2.4169922	3.3288746
2.4194336	3.1474402
2.421875	2.8320634
2.4243164	2.5142279
2.4267578	2.5437407
2.4291992	3.2691107
2.4316406	4.6141562
2.434082	6.3294373
2.4365234	8.219739
2.4389648	10.130094
2.4414062	11.923941
2.4438477	13.480957
2.446289	14.704288
2.4487305	15.529657
