
X-Axis: Frequency (hz)
Y-Axis: Fourier Amplitude (cm/s)
Number of Data Sets: 4


DATASET #1

Name: FAS H1 (cm/s)
Num Points: 2044
Info: 

X, Y Data:
0.009765625	0.61698836
0.012207031	0.852512
0.014648438	1.1250341
0.017089844	1.4299357
0.01953125	1.7599864
0.021972656	2.105383
0.024414062	2.4537935
0.026855469	2.7910914
0.029296875	3.1024585
0.03173828	3.3735683
0.034179688	3.5917463
0.036621094	3.7474947
0.0390625	3.8357625
0.041503906	3.8566687
0.043945312	3.815393
0.04638672	3.7218952
0.048828125	3.5901868
0.05126953	3.4366267
0.053710938	3.2769794
0.056152344	3.122887
0.05859375	2.979027
0.061035156	2.841718
0.06347656	2.6994882
0.06591797	2.5360723
0.068359375	2.3347158
0.07080078	2.0822973
0.07324219	1.7718773
0.075683594	1.403851
0.078125	0.98671514
0.080566406	0.54104877
0.08300781	0.1913636
0.08544922	0.5000968
0.087890625	0.9526738
0.09033203	1.3885257
0.09277344	1.7901056
0.095214844	2.153526
0.09765625	2.481848
0.10009766	2.7817469
0.10253906	3.0595756
0.10498047	3.3179576
0.10742188	3.5543435
0.10986328	3.7620742
0.11230469	3.9332423
0.11474609	4.061752
0.1171875	4.1453457
0.11962891	4.185856
0.12207031	4.18757
0.12451172	4.1544256
0.12695312	4.0875764
0.12939453	3.9854102
0.13183594	3.8472464
0.13427734	3.6801507
0.13671875	3.5061471
0.13916016	3.3643649
0.14160156	3.3012238
0.14404297	3.3459473
0.14648438	3.4859815
0.14892578	3.6656582
0.15136719	3.8088179
0.1538086	3.8455815
0.15625	3.7337828
0.1586914	3.480331
0.16113281	3.174196
0.16357422	3.0284634
0.16601562	3.3243828
0.16845703	4.154038
0.17089844	5.3616853
0.17333984	6.7474127
0.17578125	8.152057
0.17822266	9.451961
0.18066406	10.549266
0.18310547	11.369163
0.18554688	11.860791
0.18798828	11.998682
0.19042969	11.783515
0.1928711	11.241892
0.1953125	10.424588
0.1977539	9.402977
0.20019531	8.263627
0.20263672	7.1015887
0.20507812	6.0128384
0.20751953	5.0841503
0.20996094	4.377866
0.21240234	3.9129863
0.21484375	3.657189
0.21728516	3.5466144
0.21972656	3.5211403
0.22216797	3.5461383
0.22460938	3.6134782
0.22705078	3.7322097
0.22949219	3.9176266
0.2319336	4.1823235
0.234375	4.5302606
0.2368164	4.953336
0.23925781	5.429545
0.24169922	5.9218583
0.24414062	6.3789454
0.24658203	6.7391567
0.24902344	6.9387655
0.25146484	6.9245834
0.25390625	6.669866
0.25634766	6.1931243
0.25878906	5.5790133
0.26123047	4.995069
0.26367188	4.6676593
0.26611328	4.747837
0.2685547	5.154661
0.2709961	5.6444855
0.2734375	5.993538
0.2758789	6.0842414
0.2783203	5.9247684
0.28076172	5.6539497
0.28320312	5.5157413
0.28564453	5.736845
0.28808594	6.342024
0.29052734	7.1413383
0.29296875	7.891769
0.29541016	8.410804
0.29785156	8.602913
0.30029297	8.45092
0.30273438	7.998257
0.30517578	7.3299417
0.3076172	6.5575137
0.3100586	5.811887
0.3125	5.239175
0.3149414	4.9731865
0.3173828	5.0614085
0.31982422	5.4101872
0.32226562	5.8335013
0.32470703	6.1415935
0.32714844	6.19341
0.32958984	5.92653
0.33203125	5.394727
0.33447266	4.8249855
0.33691406	4.627609
0.33935547	5.103746
0.34179688	6.0491056
0.34423828	6.9832683
0.3466797	7.4981375
0.3491211	7.341655
0.3515625	6.4283
0.3540039	4.8572392
0.3564453	2.9901395
0.35888672	1.9816276
0.36132812	3.042926
0.36376953	4.392025
0.36621094	5.101494
0.36865234	5.0343027
0.37109375	4.604913
0.37353516	4.957462
0.37597656	6.8693995
0.37841797	9.683051
0.38085938	12.554912
0.38330078	14.921959
0.3857422	16.4496
0.3881836	17.010412
0.390625	16.67717
0.3930664	15.702142
0.3955078	14.46969
0.39794922	13.399101
0.40039062	12.775884
0.40283203	12.587942
0.40527344	12.544605
0.40771484	12.274223
0.41015625	11.498169
0.41259766	10.095933
0.41503906	8.106098
0.41748047	5.72072
0.41992188	3.4021869
0.42236328	2.6839888
0.4248047	4.4625983
0.4272461	6.8019686
0.4296875	8.985432
0.4321289	10.819551
0.4345703	12.207032
0.43701172	13.077389
0.43945312	13.378062
0.44189453	13.075699
0.44433594	12.152424
0.44677734	10.596059
0.44921875	8.39542
0.45166016	5.5627933
0.45410156	2.3202958
0.45654297	2.6829035
0.45898438	6.8618712
0.46142578	11.214811
0.4638672	15.065362
0.4663086	17.802113
0.46875	18.894943
0.4711914	18.141203
0.4736328	16.141447
0.47607422	15.06627
0.47851562	17.797094
0.48095703	23.804047
0.48339844	30.1714
0.48583984	34.461117
0.48828125	35.072285
0.49072266	31.27132
0.49316406	23.271156
0.49560547	12.202289
0.49804688	0.7922797
0.5004883	11.659085
0.5029297	20.300562
0.5053711	24.806753
0.5078125	24.787722
0.5102539	20.874537
0.5126953	14.520027
0.5151367	7.562208
0.5175781	1.8335512
0.52001953	3.584476
0.52246094	7.8098884
0.52490234	13.187308
0.52734375	19.718237
0.52978516	26.145134
0.53222656	30.92665
0.53466797	32.9371
0.5371094	31.803862
0.5395508	27.955103
0.5419922	22.428802
0.5444336	16.529806
0.546875	11.455777
0.5493164	8.017505
0.5517578	6.5358005
0.5541992	6.8771205
0.5566406	8.567835
0.55908203	11.019485
0.56152344	13.658486
0.56396484	15.912745
0.56640625	17.191961
0.56884766	16.958473
0.57128906	14.895526
0.57373047	11.094932
0.5761719	6.1627097
0.5786133	1.3024043
0.5810547	2.9266665
0.5834961	4.497198
0.5859375	3.46573
0.5883789	3.850127
0.5908203	10.158186
0.5932617	18.090773
0.5957031	25.427147
0.59814453	30.547066
0.60058594	32.490055
0.60302734	31.29055
0.60546875	28.252842
0.60791016	25.970951
0.61035156	26.97367
0.61279297	31.010458
0.6152344	35.691883
0.6176758	39.119797
0.6201172	40.643612
0.6225586	40.662857
0.625	40.159077
0.6274414	39.93293
0.6298828	39.9075
0.6323242	39.21733
0.6347656	37.000793
0.63720703	33.085506
0.63964844	28.15495
0.64208984	23.475563
0.64453125	20.350138
0.64697266	19.463783
0.64941406	20.563862
0.65185547	22.796247
0.6542969	25.190138
0.6567383	27.048847
0.6591797	28.307634
0.6616211	29.549614
0.6640625	31.380865
0.6665039	33.646763
0.6689453	35.483986
0.6713867	36.07904
0.6738281	35.234016
0.67626953	33.419582
0.67871094	31.465084
0.68115234	30.086882
0.68359375	29.48075
0.68603516	29.27363
0.68847656	28.94708
0.69091797	28.465586
0.6933594	28.635044
0.6958008	30.548164
0.6982422	34.210133
0.7006836	38.230415
0.703125	41.006607
0.7055664	41.760506
0.7080078	40.824924
0.7104492	39.289925
0.7128906	38.173958
0.71533203	37.704746
0.71777344	37.450855
0.72021484	37.010323
0.72265625	36.341152
0.72509766	35.5797
0.72753906	34.811356
0.72998047	34.05181
0.7324219	33.262264
0.7348633	32.268917
0.7373047	30.819086
0.7397461	28.930454
0.7421875	27.192196
0.7446289	26.407888
0.7470703	26.568872
0.7495117	26.526814
0.7519531	24.975338
0.75439453	21.4274
0.75683594	16.528534
0.75927734	12.041935
0.76171875	10.436161
0.76416016	12.170383
0.76660156	15.311677
0.76904297	18.907923
0.7714844	22.635517
0.7739258	25.970537
0.7763672	28.343714
0.7788086	29.524239
0.78125	29.686415
0.7836914	29.164
0.7861328	28.218708
0.7885742	27.06925
0.7910156	26.016113
0.79345703	25.324364
0.79589844	24.950281
0.79833984	24.562134
0.80078125	23.892885
0.80322266	22.98996
0.80566406	22.166801
0.80810547	21.803452
0.8105469	22.147032
0.8129883	23.175398
0.8154297	24.631786
0.8178711	26.24664
0.8203125	27.93629
0.8227539	29.780697
0.8251953	31.808691
0.8276367	33.79856
0.8300781	35.29607
0.83251953	35.86999
0.83496094	35.40761
0.83740234	34.159664
0.83984375	32.386192
0.84228516	29.909292
0.84472656	26.15191
0.84716797	20.669514
0.8496094	13.581894
0.8520508	5.709997
0.8544922	4.2772207
0.8569336	11.705198
0.859375	18.406578
0.8618164	23.399696
0.8642578	26.320938
0.8666992	27.28287
0.8691406	26.886303
0.87158203	26.010866
0.87402344	25.461151
0.87646484	25.66828
0.87890625	26.608107
0.88134766	27.922955
0.88378906	29.111385
0.88623047	29.667473
0.8886719	29.145794
0.8911133	27.227417
0.8935547	23.942158
0.8959961	20.287016
0.8984375	19.202559
0.9008789	23.720959
0.9033203	32.391285
0.9057617	42.059975
0.9082031	50.513615
0.91064453	56.397335
0.91308594	59.034138
0.91552734	58.34337
0.91796875	54.730846
0.92041016	48.918446
0.92285156	41.747463
0.92529297	34.023403
0.9277344	26.48132
0.9301758	19.952423
0.9326172	15.788806
0.9350586	15.756447
0.9375	19.835413
0.9399414	26.415468
0.9423828	34.49814
0.9448242	43.6193
0.9472656	53.3464
0.94970703	63.109722
0.95214844	72.23184
0.95458984	80.0223
0.95703125	85.875565
0.95947266	89.34908
0.96191406	90.21444
0.96435547	88.47799
0.9667969	84.36709
0.9692383	78.29411
0.9716797	70.804565
0.9741211	62.519493
0.9765625	54.0652
0.9790039	45.995407
0.9814453	38.721203
0.9838867	32.470486
0.9863281	27.29243
0.98876953	23.096863
0.99121094	19.718163
0.99365234	17.018534
0.99609375	15.075672
0.99853516	14.426849
1.0009766	15.914984
1.003418	19.765038
1.0058594	25.250357
1.0083008	31.299717
1.0107422	36.86665
1.0131836	41.04421
1.015625	43.159687
1.0180664	42.861282
1.0205078	40.16559
1.0229492	35.445656
1.0253906	29.367609
1.027832	22.813456
1.0302734	16.865105
1.0327148	12.84761
1.0351562	11.754826
1.0375977	12.707091
1.0400391	13.850869
1.0424805	14.096916
1.0449219	13.061775
1.0473633	10.714963
1.0498047	7.244481
1.0522461	3.45243
1.0546875	4.623304
1.0571289	10.075371
1.0595703	16.056866
1.0620117	21.786911
1.0644531	26.718288
1.0668945	30.341558
1.0693359	32.221375
1.0717773	32.07324
1.0742188	29.839418
1.0766602	25.734749
1.0791016	20.273617
1.081543	14.397058
1.0839844	10.192708
1.0864258	11.154519
1.0888672	16.207705
1.0913086	22.117256
1.09375	27.599499
1.0961914	32.255764
1.0986328	36.09726
1.1010742	39.40115
1.1035156	42.542683
1.105957	45.78736
1.1083984	49.173645
1.1108398	52.559254
1.1132812	55.761826
1.1157227	58.66116
1.1181641	61.2047
1.1206055	63.350506
1.1230469	65.00525
1.1254883	66.00879
1.1279297	66.17138
1.1303711	65.34133
1.1328125	63.475582
1.1352539	60.675453
1.1376953	57.173634
1.1401367	53.26567
1.1425781	49.217796
1.1450195	45.19925
1.1474609	41.28364
1.1499023	37.50943
1.1523438	33.947426
1.1547852	30.733036
1.1572266	28.064415
1.159668	26.201906
1.1621094	25.458408
1.1645508	26.129639
1.1669922	28.348522
1.1694336	31.983902
1.171875	36.68619
1.1743164	41.996395
1.1767578	47.428513
1.1791992	52.505264
1.1816406	56.779438
1.184082	59.84776
1.1865234	61.368523
1.1889648	61.085857
1.1914062	58.875305
1.1938477	54.816463
1.1962891	49.286377
1.1987305	43.04342
1.2011719	37.220364
1.2036133	33.051228
1.2060547	31.153473
1.2084961	30.902935
1.2109375	30.889803
1.2133789	29.879436
1.2158203	27.235785
1.2182617	22.920177
1.2207031	17.489029
1.2231445	12.542274
1.2255859	11.704544
1.2280273	16.322546
1.2304688	22.961754
1.2329102	29.548958
1.2353516	35.366734
1.237793	40.23913
1.2402344	44.252563
1.2426758	47.614304
1.2451172	50.56173
1.2475586	53.318237
1.25	56.072697
1.2524414	58.953938
1.2548828	61.977577
1.2573242	64.99668
1.2597656	67.69461
1.262207	69.64652
1.2646484	70.42441
1.2670898	69.704636
1.2695312	67.3401
1.2719727	63.380325
1.2744141	58.044804
1.2768555	51.661522
1.2792969	44.599304
1.2817383	37.20841
1.2841797	29.796106
1.2866211	22.637081
1.2890625	16.04926
1.2915039	10.636304
1.2939453	7.9522643
1.2963867	9.442479
1.2988281	13.123352
1.3012695	17.218826
1.3037109	21.229763
1.3061523	25.077011
1.3085938	28.802128
1.3110352	32.473873
1.3134766	36.14896
1.315918	39.86294
1.3183594	43.641155
1.3208008	47.51867
1.3232422	51.541355
1.3256836	55.720745
1.328125	59.957096
1.3305664	63.971912
1.3330078	67.304054
1.3354492	69.37986
1.3378906	69.638794
1.340332	67.66985
1.3427734	63.32297
1.3452148	56.762337
1.3476562	48.45222
1.3500977	39.080833
1.3525391	29.443373
1.3549805	20.313513
1.3574219	12.350076
1.3598633	6.267235
1.3623047	4.4913096
1.3647461	7.6698375
1.3671875	11.889652
1.3696289	16.41852
1.3720703	21.199823
1.3745117	26.118513
1.3769531	30.987545
1.3793945	35.596817
1.3818359	39.751865
1.3842773	43.312687
1.3867188	46.232952
1.3891602	48.58176
1.3916016	50.508522
1.394043	52.135796
1.3964844	53.41885
1.3989258	54.06535
1.4013672	53.592503
1.4038086	51.49835
1.40625	47.468708
1.4086914	41.542336
1.4111328	34.214252
1.4135742	26.514166
1.4160156	20.107843
1.418457	17.004925
1.4208984	17.468437
1.4233398	19.095257
1.4257812	19.724072
1.4282227	18.48535
1.4306641	15.3227
1.4331055	10.626553
1.4355469	5.2653947
1.4379883	4.248074
1.4404297	10.158072
1.4428711	16.92064
1.4453125	23.682564
1.4477539	30.232235
1.4501953	36.411804
1.4526367	42.03312
1.4550781	46.87004
1.4575195	50.676453
1.4599609	53.223656
1.4624023	54.339054
1.4648438	53.95177
1.4672852	52.14138
1.4697266	49.172493
1.472168	45.503986
1.4746094	41.72683
1.4770508	38.40955
1.4794922	35.874546
1.4819336	34.045353
1.484375	32.530907
1.4868164	30.899681
1.4892578	28.93377
1.4916992	26.7238
1.4941406	24.598412
1.496582	22.93842
1.4990234	21.96042
1.5014648	21.650543
1.5039062	21.920374
1.5063477	22.798737
1.5087891	24.418816
1.5112305	26.809986
1.5136719	29.7328
1.5161133	32.72793
1.5185547	35.291187
1.5209961	37.023037
1.5234375	37.701855
1.5258789	37.285774
1.5283203	35.887596
1.5307617	33.746254
1.5332031	31.230423
1.5356445	28.866947
1.5380859	27.334957
1.5405273	27.270666
1.5429688	28.87078
1.5454102	31.697935
1.5478516	34.960426
1.550293	37.88361
1.5527344	39.889572
1.5551758	40.631184
1.5576172	39.967617
1.5600586	37.9147
1.5625	34.588387
1.5649414	30.146317
1.5673828	24.755922
1.5698242	18.58386
1.5722656	11.818188
1.574707	4.766709
1.5771484	3.358217
1.5795898	10.421597
1.5820312	17.424042
1.5844727	23.940607
1.5869141	29.790651
1.5893555	34.87019
1.5917969	39.132854
1.5942383	42.571995
1.5966797	45.204777
1.5991211	47.06741
1.6015625	48.219353
1.6040039	48.746666
1.6064453	48.7586
1.6088867	48.3801
1.6113281	47.76189
1.6137695	47.121693
1.6162109	46.80086
1.6186523	47.28942
1.6210938	49.1377
1.6235352	52.734688
1.6259766	58.07494
1.628418	64.69805
1.6308594	71.81656
1.6333008	78.50948
1.6357422	83.88533
1.6381836	87.20352
1.640625	87.95974
1.6430664	85.941376
1.6455078	81.25197
1.6479492	74.301865
1.6503906	65.76485
1.652832	56.4992
1.6552734	47.432644
1.6577148	39.404003
1.6601562	32.955536
1.6625977	28.131903
1.6650391	24.469118
1.6674805	21.299435
1.6699219	18.171318
1.6723633	15.143114
1.6748047	12.953301
1.6772461	12.833555
1.6796875	15.198934
1.6821289	19.097662
1.6845703	23.477005
1.6870117	27.684755
1.6894531	31.342783
1.6918945	34.231503
1.6943359	36.249096
1.6967773	37.416336
1.6992188	37.90292
1.7016602	38.05608
1.7041016	38.39321
1.706543	39.509533
1.7089844	41.88209
1.7114258	45.65659
1.7138672	50.581043
1.7163086	56.120354
1.71875	61.6279
1.7211914	66.46876
1.7236328	70.0828
1.7260742	72.010216
1.7285156	71.90711
1.730957	69.55858
1.7333984	64.88857
1.7358398	57.962894
1.7382812	48.98661
1.7407227	38.32103
1.7431641	26.602098
1.7456055	15.510778
1.7480469	12.356144
1.7504883	21.82853
1.7529297	34.417027
1.7553711	46.812206
1.7578125	58.00886
1.7602539	67.42634
1.7626953	74.6592
1.7651367	79.434135
1.7675781	81.60621
1.7700195	81.16055
1.7724609	78.21934
1.7749023	73.04279
1.7773438	66.02862
1.7797852	57.71054
1.7822266	48.774403
1.784668	40.125137
1.7871094	33.01734
1.7895508	29.03761
1.7919922	29.218307
1.7944336	32.808044
1.796875	38.059017
1.7993164	43.62972
1.8017578	48.810623
1.8041992	53.301594
1.8066406	57.033382
1.809082	60.068253
1.8115234	62.540524
1.8139648	64.61224
1.8164062	66.43297
1.8188477	68.11042
1.8212891	69.69583
1.8237305	71.190025
1.8261719	72.56337
1.8286133	73.77936
1.8310547	74.81195
1.8334961	75.65165
1.8359375	76.29888
1.8383789	76.74368
1.8408203	76.945244
1.8432617	76.81855
1.8457031	76.24281
1.8481445	75.0823
1.8505859	73.22104
1.8530273	70.59233
1.8554688	67.19521
1.8579102	63.092854
1.8603516	58.40006
1.862793	53.26946
1.8652344	47.887714
1.8676758	42.464787
1.8701172	37.214447
1.8725586	32.32736
1.875	27.946096
1.8774414	24.144688
1.8798828	20.906939
1.8823242	18.1405
1.8847656	15.802248
1.887207	14.164426
1.8896484	14.026425
1.8920898	16.209183
1.8945312	20.605091
1.8969727	26.431585
1.8994141	32.88675
1.9018555	39.291763
1.9042969	45.070385
1.9067383	49.76206
1.9091797	53.052017
1.9116211	54.79874
1.9140625	55.046974
1.9165039	54.03171
1.9189453	52.167377
1.9213867	49.987865
1.9238281	48.02466
1.9262695	46.635883
1.9287109	45.863705
1.9311523	45.430107
1.9335938	44.876
1.9360352	43.752274
1.9384766	41.7558
1.940918	38.791122
1.9433594	34.996513
1.9458008	30.776068
1.9482422	26.840668
1.9506836	24.169315
1.953125	23.61945
1.9555664	25.228464
1.9580078	28.160442
1.9604492	31.41216
1.9628906	34.25497
1.965332	36.27764
1.9677734	37.318386
1.9702148	37.394604
1.9726562	36.63397
1.9750977	35.2233
1.9775391	33.370605
1.9799805	31.283752
1.9824219	29.14743
1.9848633	27.109783
1.9873047	25.276897
1.9897461	23.714796
1.9921875	22.44792
1.9946289	21.453821
1.9970703	20.663927
1.9995117	19.978752
2.0019531	19.292082
2.0043945	18.511774
2.006836	17.575722
2.0092773	16.466213
2.0117188	15.226677
2.0141602	13.972082
2.0166016	12.871588
2.019043	12.100389
2.0214844	11.770609
2.0239258	11.888232
2.0263672	12.364299
2.0288086	13.07601
2.03125	13.922991
2.0336914	14.851118
2.0361328	15.844936
2.0385742	16.898462
2.0410156	17.988197
2.043457	19.063852
2.0458984	20.060478
2.0483398	20.920021
2.0507812	21.600212
2.0532227	22.066166
2.055664	22.27835
2.0581055	22.189892
2.0605469	21.757187
2.0629883	20.956879
2.0654297	19.812757
2.067871	18.436905
2.0703125	17.065426
2.072754	16.033434
2.0751953	15.623425
2.0776367	15.845923
2.0800781	16.368761
2.0825195	16.688616
2.084961	16.338116
2.0874023	14.99837
2.0898438	12.527365
2.0922852	8.970566
2.0947266	4.6944566
2.097168	3.0532236
2.0996094	7.89995
2.1020508	13.6652
2.1044922	19.250187
2.1069336	24.246727
2.109375	28.378292
2.1118164	31.46351
2.1142578	33.40754
2.1166992	34.19157
2.1191406	33.854767
2.121582	32.47081
2.1240234	30.125113
2.1264648	26.899887
2.1289062	22.868612
2.1313477	18.101355
2.133789	12.675671
2.1362305	6.701866
2.1386719	0.98704565
2.1411133	6.620199
2.1435547	13.378921
2.145996	19.978659
2.1484375	26.12305
2.150879	31.525875
2.1533203	35.927307
2.1557617	39.125946
2.1582031	41.00318
2.1606445	41.538177
2.163086	40.808567
2.1655273	38.97828
2.1679688	36.275528
2.1704102	32.96154
2.1728516	29.294584
2.175293	25.496572
2.1777344	21.735691
2.1801758	18.127907
2.1826172	14.762275
2.1850586	11.746973
2.1875	9.279213
2.1899414	7.721188
2.1923828	7.483276
2.1948242	8.529095
2.1972656	10.355703
2.199707	12.512578
2.2021484	14.739481
2.2045898	16.88218
2.2070312	18.827301
2.2094727	20.477638
2.211914	21.751759
2.2143555	22.596598
2.2167969	22.996859
2.2192383	22.97795
2.2216797	22.601278
2.224121	21.953762
2.2265625	21.132048
2.229004	20.226402
2.2314453	19.304924
2.2338867	18.40391
2.2363281	17.522572
2.2387695	16.623322
2.241211	15.640607
2.2436523	14.495244
2.2460938	13.11575
2.2485352	11.452253
2.2509766	9.487217
2.253418	7.247558
2.2558594	4.8524246
2.2583008	2.7986302
2.2607422	2.9869063
2.2631836	5.3134885
2.265625	8.052161
2.2680664	10.758446
2.2705078	13.281545
2.2729492	15.532022
2.2753906	17.444315
2.277832	18.961918
2.2802734	20.027834
2.2827148	20.584759
2.2851562	20.58296
2.2875977	19.99302
2.290039	18.811901
2.2924805	17.066357
2.2949219	14.81499
2.2973633	12.149031
2.2998047	9.193955
2.302246	6.1354084
2.3046875	3.4426358
2.307129	3.0472193
2.3095703	5.421936
2.3120117	8.331512
2.3144531	11.177493
2.3168945	13.801741
2.319336	16.120333
2.3217773	18.07065
2.3242188	19.603058
2.3266602	20.68132
2.3291016	21.285393
2.331543	21.414677
2.3339844	21.093266
2.3364258	20.372965
2.3388672	19.331827
2.3413086	18.067883
2.34375	16.694305
2.3461914	15.332598
2.3486328	14.110117
2.3510742	13.146549
2.3535156	12.536942
2.355957	12.326741
2.3583984	12.494793
2.3608398	12.959256
2.3632812	13.599517
2.3657227	14.283827
2.368164	14.884577
2.3706055	15.292158
2.3730469	15.42318
2.3754883	15.229589
2.3779297	14.70282
2.380371	13.873975
2.3828125	12.808342
2.385254	11.59964
2.3876953	10.359558
2.3901367	9.204988
2.3925781	8.238979
2.3950195	7.522389
2.397461	7.0452805
2.3999023	6.7176523
2.4023438	6.3962984
2.4047852	5.929254
2.4072266	5.1907287
2.409668	4.101118
2.4121094	2.6444855
2.4145508	1.0187099
2.4169922	1.7416323
2.4194336	4.0469375
2.421875	6.5327735
2.4243164	9.005022
2.4267578	11.329307
2.4291992	13.394648
2.4316406	15.11646
2.434082	16.439037
2.4365234	17.333885
2.4389648	17.79678
2.4414062	17.840887
2.4438477	17.492382
2.446289	16.785631
2.4487305	15.760067
2.4511719	14.458338
2.4536133	12.927622
