
X-Axis: Frequency (hz)
Y-Axis: Fourier Amplitude (cm/s)
Number of Data Sets: 4


DATASET #1

Name: FAS H1 (cm/s)
Num Points: 2044
Info: 

X, Y Data:
0.009765625	0.2903974
0.012207031	0.45141643
0.014648438	0.6644493
0.017089844	0.9343842
0.01953125	1.2689805
0.021972656	1.6790332
0.024414062	2.172321
0.026855469	2.7493126
0.029296875	3.4053154
0.03173828	4.134281
0.034179688	4.9274554
0.036621094	5.768495
0.0390625	6.6326013
0.041503906	7.4914794
0.043945312	8.318233
0.04638672	9.086527
0.048828125	9.767077
0.05126953	10.329037
0.053710938	10.747153
0.056152344	11.007248
0.05859375	11.104426
0.061035156	11.039808
0.06347656	10.826129
0.06591797	10.501795
0.068359375	10.138462
0.07080078	9.8301
0.07324219	9.670551
0.075683594	9.737467
0.078125	10.081479
0.080566406	10.705671
0.08300781	11.548821
0.08544922	12.503295
0.087890625	13.460059
0.09033203	14.341134
0.09277344	15.099045
0.095214844	15.697801
0.09765625	16.101316
0.10009766	16.279108
0.10253906	16.21806
0.10498047	15.924407
0.10742188	15.413318
0.10986328	14.696544
0.11230469	13.780709
0.11474609	12.678411
0.1171875	11.422791
0.11962891	10.074252
0.12207031	8.71548
0.12451172	7.4382033
0.12695312	6.32576
0.12939453	5.4292393
0.13183594	4.739198
0.13427734	4.1755304
0.13671875	3.620007
0.13916016	2.9737928
0.14160156	2.210131
0.14404297	1.4820883
0.14648438	1.4707636
0.14892578	2.4915483
0.15136719	3.9321299
0.1538086	5.5262966
0.15625	7.175926
0.1586914	8.831694
0.16113281	10.477596
0.16357422	12.13129
0.16601562	13.838974
0.16845703	15.656043
0.17089844	17.613726
0.17333984	19.684944
0.17578125	21.769644
0.17822266	23.710438
0.18066406	25.33143
0.18310547	26.482592
0.18554688	27.075102
0.18798828	27.102016
0.19042969	26.644716
0.1928711	25.863617
0.1953125	24.967226
0.1977539	24.158747
0.20019531	23.582079
0.20263672	23.307219
0.20507812	23.368551
0.20751953	23.808996
0.20996094	24.666897
0.21240234	25.90818
0.21484375	27.378052
0.21728516	28.829605
0.21972656	30.005907
0.22216797	30.716465
0.22460938	30.87479
0.22705078	30.497478
0.22949219	29.680483
0.2319336	28.568123
0.234375	27.321373
0.2368164	26.082586
0.23925781	24.936668
0.24169922	23.887741
0.24414062	22.88312
0.24658203	21.889944
0.24902344	20.98206
0.25146484	20.366652
0.25390625	20.296144
0.25634766	20.890518
0.25878906	22.016966
0.26123047	23.34448
0.26367188	24.495335
0.26611328	25.162514
0.2685547	25.16254
0.2709961	24.449224
0.2734375	23.103136
0.2758789	21.294586
0.2783203	19.22272
0.28076172	17.070675
0.28320312	15.064793
0.28564453	13.691972
0.28808594	13.805203
0.29052734	15.929009
0.29296875	19.471783
0.29541016	23.256002
0.29785156	26.208275
0.30029297	27.574291
0.30273438	26.97373
0.30517578	24.409061
0.3076172	20.242342
0.3100586	15.204513
0.3125	10.674889
0.3149414	9.342637
0.3173828	12.332561
0.31982422	16.953121
0.32226562	21.424135
0.32470703	24.989212
0.32714844	27.145113
0.32958984	27.467144
0.33203125	25.687922
0.33447266	21.87762
0.33691406	16.702051
0.33935547	12.074915
0.34179688	11.936382
0.34423828	16.815432
0.3466797	22.904055
0.3491211	27.951082
0.3515625	30.757298
0.3540039	30.549183
0.3564453	26.996178
0.35888672	20.401314
0.36132812	12.021133
0.36376953	6.7714996
0.36621094	12.762598
0.36865234	20.96344
0.37109375	27.687712
0.37353516	32.090973
0.37597656	33.620865
0.37841797	31.727848
0.38085938	26.080349
0.38330078	16.952156
0.3857422	5.460834
0.3881836	6.530991
0.390625	16.844593
0.3930664	23.603237
0.3955078	25.810858
0.39794922	23.68691
0.40039062	18.622694
0.40283203	12.756612
0.40527344	8.189525
0.40771484	5.6159754
0.41015625	3.8426728
0.41259766	3.286247
0.41503906	5.4936495
0.41748047	7.9531293
0.41992188	9.00481
0.42236328	8.125834
0.4248047	5.48911
0.4272461	2.6478214
0.4296875	5.8307385
0.4321289	11.640498
0.4345703	17.43804
0.43701172	22.065233
0.43945312	24.51329
0.44189453	24.133907
0.44433594	20.855114
0.44677734	15.209123
0.44921875	8.254186
0.45166016	3.579264
0.45410156	9.138103
0.45654297	16.183596
0.45898438	22.643248
0.46142578	28.127226
0.4638672	32.278015
0.4663086	34.663265
0.46875	34.79958
0.4711914	32.23129
0.4736328	26.761713
0.47607422	19.15382
0.47851562	13.647464
0.48095703	18.08848
0.48339844	27.255922
0.48583984	33.824215
0.48828125	34.483288
0.49072266	28.25048
0.49316406	17.02908
0.49560547	12.283411
0.49804688	24.56204
0.5004883	37.114338
0.5029297	43.743927
0.5053711	42.615303
0.5078125	34.061535
0.5102539	20.212624
0.5126953	6.73306
0.5151367	15.36478
0.5175781	27.42248
0.52001953	34.26084
0.52246094	34.6601
0.52490234	29.097233
0.52734375	19.61033
0.52978516	10.508119
0.53222656	10.166411
0.53466797	13.967591
0.5371094	13.202308
0.5395508	6.2232227
0.5419922	6.5265737
0.5444336	21.49785
0.546875	35.753685
0.5493164	45.71719
0.5517578	48.899616
0.5541992	44.79297
0.5566406	36.030464
0.55908203	30.304386
0.56152344	35.70373
0.56396484	46.51278
0.56640625	53.9107
0.56884766	53.85027
0.57128906	45.862232
0.57373047	32.26531
0.5761719	18.235172
0.5786133	14.015145
0.5810547	19.20772
0.5834961	21.276363
0.5859375	17.452408
0.5883789	9.54074
0.5908203	5.2246933
0.5932617	11.464003
0.5957031	15.574871
0.59814453	15.061525
0.60058594	10.517195
0.60302734	3.858652
0.60546875	2.5864706
0.60791016	6.857598
0.61035156	8.206385
0.61279297	7.475204
0.6152344	7.215843
0.6176758	8.790056
0.6201172	10.102711
0.6225586	9.527447
0.625	7.8088226
0.6274414	8.779097
0.6298828	13.335219
0.6323242	17.904856
0.6347656	20.281284
0.63720703	19.858095
0.63964844	17.47382
0.64208984	15.154142
0.64453125	14.568869
0.64697266	14.808599
0.64941406	13.778378
0.65185547	10.580527
0.6542969	5.785938
0.6567383	1.6706593
0.6591797	4.5558486
0.6616211	8.035085
0.6640625	11.992937
0.6665039	17.447811
0.6689453	23.818619
0.6713867	29.695528
0.6738281	34.02564
0.67626953	36.58873
0.67871094	37.789703
0.68115234	38.024956
0.68359375	37.232304
0.68603516	35.095432
0.68847656	31.608168
0.69091797	27.386086
0.6933594	23.496187
0.6958008	20.911993
0.6982422	19.924948
0.7006836	20.12952
0.703125	21.058855
0.7055664	22.655182
0.7080078	25.152119
0.7104492	28.603624
0.7128906	32.67179
0.71533203	36.955006
0.71777344	41.35174
0.72021484	45.923374
0.72265625	50.40903
0.72509766	54.05577
0.72753906	56.027065
0.72998047	55.91317
0.7324219	53.834877
0.7348633	50.12245
0.7373047	44.989113
0.7397461	38.587425
0.7421875	31.363388
0.7446289	24.353094
0.7470703	19.334677
0.7495117	18.381613
0.7519531	21.44916
0.75439453	26.062523
0.75683594	29.962597
0.75927734	31.829575
0.76171875	31.224035
0.76416016	28.496788
0.76660156	24.582327
0.76904297	20.827938
0.7714844	18.833149
0.7739258	19.487038
0.7763672	21.824257
0.7788086	24.150629
0.78125	25.48108
0.7836914	25.64559
0.7861328	24.785435
0.7885742	22.920599
0.7910156	20.06275
0.79345703	16.808691
0.79589844	14.784536
0.79833984	15.49367
0.80078125	18.040184
0.80322266	20.451101
0.80566406	21.552984
0.80810547	20.899145
0.8105469	18.394379
0.8129883	14.182639
0.8154297	8.722978
0.8178711	3.0781248
0.8203125	4.1263924
0.8227539	8.977135
0.8251953	13.126637
0.8276367	16.789232
0.8300781	20.525879
0.83251953	24.639324
0.83496094	28.963745
0.83740234	33.017536
0.83984375	36.225048
0.84228516	38.05938
0.84472656	38.158657
0.84716797	36.459
0.8496094	33.29854
0.8520508	29.363605
0.8544922	25.382648
0.8569336	21.665083
0.859375	17.912588
0.8618164	13.59891
0.8642578	8.550375
0.8666992	3.521275
0.8691406	4.107285
0.87158203	8.364437
0.87402344	11.567562
0.87646484	13.367196
0.87890625	14.461033
0.88134766	16.16161
0.88378906	19.1017
0.88623047	22.364464
0.8886719	24.352943
0.8911133	23.812191
0.8935547	20.256968
0.8959961	14.055686
0.8984375	6.5219655
0.9008789	4.6129584
0.9033203	11.148729
0.9057617	16.437582
0.9082031	19.164673
0.91064453	19.489357
0.91308594	18.763906
0.91552734	19.237774
0.91796875	22.129461
0.92041016	26.295624
0.92285156	30.02365
0.92529297	32.48389
0.9277344	33.79256
0.9301758	34.531662
0.9326172	35.13079
0.9350586	35.545963
0.9375	35.444695
0.9399414	34.583336
0.9423828	32.986366
0.9448242	30.853493
0.9472656	28.330599
0.94970703	25.313852
0.95214844	21.466135
0.95458984	16.499231
0.95703125	10.668084
0.95947266	6.1733212
0.96191406	8.6295
0.96435547	14.44273
0.9667969	20.14168
0.9692383	25.554874
0.9716797	31.139912
0.9741211	36.96649
0.9765625	42.411568
0.9790039	46.51368
0.9814453	48.476597
0.9838867	47.97376
0.9863281	45.22068
0.98876953	40.83964
0.99121094	35.517986
0.99365234	29.571228
0.99609375	22.824238
0.99853516	15.323784
1.0009766	10.015969
1.003418	14.304954
1.0058594	23.420242
1.0083008	31.853374
1.0107422	37.874897
1.0131836	41.045345
1.015625	41.53792
1.0180664	39.766106
1.0205078	36.40825
1.0229492	32.857338
1.0253906	31.372677
1.027832	33.54415
1.0302734	38.375458
1.0327148	43.552277
1.0351562	47.375996
1.0375977	49.11977
1.0400391	48.775993
1.0424805	46.821926
1.0449219	44.016216
1.0473633	41.092285
1.0498047	38.42466
1.0522461	36.02864
1.0546875	33.990772
1.0571289	32.86132
1.0595703	33.4629
1.0620117	36.17584
1.0644531	40.49276
1.0668945	45.27568
1.0693359	49.22298
1.0717773	51.23394
1.0742188	50.677784
1.0766602	47.466267
1.0791016	41.87083
1.081543	34.27091
1.0839844	25.298958
1.0864258	17.340187
1.0888672	17.877434
1.0913086	28.477642
1.09375	42.169567
1.0961914	55.679775
1.0986328	67.52008
1.1010742	76.701164
1.1035156	82.491516
1.105957	84.476135
1.1083984	82.634415
1.1108398	77.25414
1.1132812	68.708374
1.1157227	57.310974
1.1181641	43.462666
1.1206055	28.29298
1.1230469	16.97874
1.1254883	23.855919
1.1279297	42.144096
1.1303711	62.833405
1.1328125	83.55882
1.1352539	102.65824
1.1376953	118.26621
1.1401367	128.48703
1.1425781	131.83586
1.1450195	127.62904
1.1474609	116.1509
1.1499023	98.54857
1.1523438	76.52117
1.1547852	51.978928
1.1572266	27.082727
1.159668	10.491961
1.1621094	26.904167
1.1645508	47.806004
1.1669922	66.621284
1.1694336	83.01675
1.171875	97.483284
1.1743164	110.64078
1.1767578	122.68972
1.1791992	133.21143
1.1816406	141.43417
1.184082	146.70113
1.1865234	148.78204
1.1889648	147.87996
1.1914062	144.4138
1.1938477	138.76862
1.1962891	131.17737
1.1987305	121.78852
1.2011719	110.86752
1.2036133	99.02393
1.2060547	87.35711
1.2084961	77.39883
1.2109375	70.79255
1.2133789	68.81678
1.2158203	72.08545
1.2182617	80.48326
1.2207031	92.984535
1.2231445	107.53404
1.2255859	121.42155
1.2280273	132.03824
1.2304688	137.60086
1.2329102	137.54295
1.2353516	132.47597
1.237793	123.81655
1.2402344	113.36426
1.2426758	103.07404
1.2451172	94.99271
1.2475586	90.903046
1.25	91.42064
1.2524414	95.44941
1.2548828	100.94498
1.2573242	106.1542
1.2597656	110.17915
1.262207	112.81179
1.2646484	114.0301
1.2670898	113.55466
1.2695312	110.72775
1.2719727	104.76588
1.2744141	95.18248
1.2768555	82.1116
1.2792969	66.37482
1.2817383	49.288116
1.2841797	32.353954
1.2866211	17.187382
1.2890625	8.240272
1.2915039	14.323205
1.2939453	23.876245
1.2963867	32.84218
1.2988281	41.202
1.3012695	49.278847
1.3037109	57.32463
1.3061523	65.37447
1.3085938	73.12901
1.3110352	79.90837
1.3134766	84.75345
1.315918	86.677734
1.3183594	84.98141
1.3208008	79.522964
1.3232422	70.890305
1.3256836	60.506763
1.328125	50.71447
1.3305664	44.561844
1.3330078	44.151535
1.3354492	48.35123
1.3378906	54.11242
1.340332	59.158607
1.3427734	62.564247
1.3452148	64.37888
1.3476562	65.21054
1.3500977	65.88345
1.3525391	67.151634
1.3549805	69.47233
1.3574219	72.848206
1.3598633	76.76656
1.3623047	80.24721
1.3647461	82.01196
1.3671875	80.74078
1.3696289	75.35501
1.3720703	65.26112
1.3745117	50.5049
1.3769531	31.857073
1.3793945	11.523547
1.3818359	15.114358
1.3842773	36.668037
1.3867188	56.828323
1.3891602	73.7319
1.3916016	86.49388
1.394043	94.78629
1.3964844	98.73057
1.3989258	98.7716
1.4013672	95.53763
1.4038086	89.698715
1.40625	81.84644
1.4086914	72.43122
1.4111328	61.799892
1.4135742	50.307568
1.4160156	38.442993
1.418457	26.949495
1.4208984	17.196648
1.4233398	12.591999
1.4257812	16.022573
1.4282227	22.909145
1.4306641	30.107237
1.4331055	36.859882
1.4355469	42.99314
1.4379883	48.467102
1.4404297	53.30512
1.4428711	57.604687
1.4453125	61.53292
1.4477539	65.281105
1.4501953	68.98909
1.4526367	72.66863
1.4550781	76.155426
1.4575195	79.0997
1.4599609	80.99857
1.4624023	81.267235
1.4648438	79.33892
1.4672852	74.78493
1.4697266	67.44562
1.472168	57.60893
1.4746094	46.3788
1.4770508	36.645466
1.4794922	34.218067
1.4819336	42.555595
1.484375	57.2208
1.4868164	73.35575
1.4892578	88.26732
1.4916992	100.42449
1.4941406	108.9826
1.496582	113.69315
1.4990234	114.91574
1.5014648	113.62509
1.5039062	111.30618
1.5063477	109.65105
1.5087891	110.0386
1.5112305	113.00273
1.5136719	118.07804
1.5161133	124.13171
1.5185547	129.86469
1.5209961	134.16264
1.5234375	136.24336
1.5258789	135.66058
1.5283203	132.23874
1.5307617	125.99461
1.5332031	117.10339
1.5356445	105.93832
1.5380859	93.16323
1.5405273	79.83953
1.5429688	67.5087
1.5454102	58.144726
1.5478516	53.578663
1.550293	54.153812
1.5527344	58.17098
1.5551758	63.2388
1.5576172	67.53804
1.5600586	70.04599
1.5625	70.35597
1.5649414	68.484116
1.5673828	64.71257
1.5698242	59.480495
1.5722656	53.323296
1.574707	46.868076
1.5771484	40.865112
1.5795898	36.190964
1.5820312	33.66824
1.5844727	33.60351
1.5869141	35.47093
1.5893555	38.257988
1.5917969	41.044617
1.5942383	43.275738
1.5966797	44.786972
1.5991211	45.725327
1.6015625	46.41541
1.6040039	47.172173
1.6064453	48.130177
1.6088867	49.178204
1.6113281	50.0378
1.6137695	50.425976
1.6162109	50.189644
1.6186523	49.351646
1.6210938	48.065536
1.6235352	46.51013
1.6259766	44.789345
1.628418	42.900455
1.6308594	40.810715
1.6333008	38.61123
1.6357422	36.675537
1.6381836	35.706608
1.640625	36.509308
1.6430664	39.488575
1.6455078	44.33701
1.6479492	50.249977
1.6503906	56.320972
1.652832	61.75986
1.6552734	65.95796
1.6577148	68.49315
1.6601562	69.12281
1.6625977	67.78969
1.6650391	64.64055
1.6674805	60.03775
1.6699219	54.53436
1.6723633	48.782642
1.6748047	43.390347
1.6772461	38.75653
1.6796875	34.969967
1.6821289	31.83973
1.6845703	29.055902
1.6870117	26.399548
1.6894531	23.90103
1.6918945	21.916895
1.6943359	21.045551
1.6967773	21.74048
1.6992188	23.857687
1.7016602	26.76016
1.7041016	29.812677
1.706543	32.67888
1.7089844	35.316875
1.7114258	37.83407
1.7138672	40.32703
1.7163086	42.8243
1.71875	45.330982
1.7211914	47.89374
1.7236328	50.614655
1.7260742	53.60693
1.7285156	56.929718
1.730957	60.53804
1.7333984	64.28009
1.7358398	67.94183
1.7382812	71.318375
1.7407227	74.27637
1.7431641	76.772964
1.7456055	78.834854
1.7480469	80.5164
1.7504883	81.86103
1.7529297	82.873985
1.7553711	83.50096
1.7578125	83.608925
1.7602539	82.97201
1.7626953	81.28668
1.7651367	78.224846
1.7675781	73.51816
1.7700195	67.05213
1.7724609	58.929707
1.7749023	49.49442
1.7773438	39.299114
1.7797852	29.074272
1.7822266	19.75635
1.784668	12.804247
1.7871094	10.472526
1.7895508	12.271511
1.7919922	14.54528
1.7944336	15.430634
1.796875	14.443978
1.7993164	11.6576
1.8017578	7.494413
1.8041992	3.136023
1.8066406	4.8653274
1.809082	10.149158
1.8115234	15.328925
1.8139648	19.912796
1.8164062	23.677137
1.8188477	26.441458
1.8212891	28.039904
1.8237305	28.351501
1.8261719	27.374771
1.8286133	25.303364
1.8310547	22.616838
1.8334961	20.210392
1.8359375	19.42882
1.8383789	21.420921
1.8408203	26.101625
1.8432617	32.508705
1.8457031	39.703415
1.8481445	46.98897
1.8505859	53.849148
1.8530273	59.894825
1.8554688	64.84476
1.8579102	68.529
1.8603516	70.90837
1.862793	72.09366
1.8652344	72.34884
1.8676758	72.04834
1.8701172	71.58917
1.8725586	71.27569
1.875	71.23499
1.8774414	71.40596
1.8798828	71.60216
1.8823242	71.60409
1.8847656	71.22802
1.887207	70.354164
1.8896484	68.9177
1.8920898	66.88598
1.8945312	64.23976
1.8969727	60.970074
1.8994141	57.09359
1.9018555	52.67585
1.9042969	47.850426
1.9067383	42.817524
1.9091797	37.823456
1.9116211	33.128162
1.9140625	28.974117
1.9165039	25.562117
1.9189453	23.037144
1.9213867	21.48406
1.9238281	20.94433
1.9262695	21.445763
1.9287109	23.017197
1.9311523	25.672272
1.9335938	29.368185
1.9360352	33.97434
1.9384766	39.26565
1.940918	44.94942
1.9433594	50.70411
1.9458008	56.219345
1.9482422	61.23081
1.9506836	65.54254
1.953125	69.04068
1.9555664	71.69284
1.9580078	73.54206
1.9604492	74.69035
1.9628906	75.285835
1.965332	75.50524
1.9677734	75.53314
1.9702148	75.52864
1.9726562	75.58852
1.9750977	75.716606
1.9775391	75.816605
1.9799805	75.715416
1.9824219	75.21148
1.9848633	74.12823
1.9873047	72.34607
1.9897461	69.80685
1.9921875	66.49709
1.9946289	62.42737
1.9970703	57.625328
1.9995117	52.14093
2.0019531	46.050537
2.0043945	39.45808
2.006836	32.500294
2.0092773	25.36689
2.0117188	18.339098
2.0141602	11.892585
2.0166016	7.159448
2.019043	6.7106023
2.0214844	9.715545
2.0239258	13.098124
2.0263672	16.017292
2.0288086	18.453253
2.03125	20.5948
2.0336914	22.643238
2.0361328	24.715559
2.0385742	26.829256
2.0410156	28.935549
2.043457	30.966017
2.0458984	32.85638
2.0483398	34.552414
2.0507812	36.000587
2.0532227	37.13172
2.055664	37.84822
2.0581055	38.021717
2.0605469	37.51434
2.0629883	36.21149
2.0654297	34.062218
2.067871	31.105007
2.0703125	27.481245
2.072754	23.442333
2.0751953	19.3597
2.0776367	15.731793
2.0800781	13.115048
2.0825195	11.851662
2.084961	11.717088
2.0874023	12.099213
2.0898438	12.520775
2.0922852	12.797523
2.0947266	12.91436
2.097168	12.877804
2.0996094	12.633039
2.1020508	12.058663
2.1044922	11.012675
2.1069336	9.394079
2.109375	7.1857543
2.1118164	4.4744525
2.1142578	1.6496089
2.1166992	2.6464272
2.1191406	6.0136023
2.121582	9.425622
2.1240234	12.637378
2.1264648	15.529046
2.1289062	18.035667
2.1313477	20.128586
2.133789	21.806992
2.1362305	23.094572
2.1386719	24.045832
2.1411133	24.74803
2.1435547	25.316706
2.145996	25.884068
2.1484375	26.579407
2.150879	27.502115
2.1533203	28.690104
2.1557617	30.101566
2.1582031	31.622074
2.1606445	33.099606
2.163086	34.389885
2.1655273	35.390495
2.1679688	36.057182
2.1704102	36.394512
2.1728516	36.43515
2.175293	36.218624
2.1777344	35.780018
2.1801758	35.14853
2.1826172	34.352997
2.1850586	33.428226
2.1875	32.418385
2.1899414	31.374031
2.1923828	30.343029
2.1948242	29.36089
2.1972656	28.443066
2.199707	27.588167
2.2021484	26.786978
2.2045898	26.039038
2.2070312	25.367977
2.2094727	24.83336
2.211914	24.528725
2.2143555	24.560373
2.2167969	25.004131
2.2192383	25.8636
2.2216797	27.059198
2.224121	28.45885
2.2265625	29.92148
2.229004	31.32741
2.2314453	32.583904
2.2338867	33.62134
2.2363281	34.388527
2.2387695	34.852875
2.241211	35.001377
2.2436523	34.841347
2.2460938	34.399555
2.2485352	33.71934
2.2509766	32.853073
2.253418	31.851173
2.2558594	30.750486
2.2583008	29.56647
2.2607422	28.291685
2.2631836	26.90293
2.265625	25.369993
2.2680664	23.667952
2.2705078	21.788757
2.2729492	19.74943
2.2753906	17.603466
2.277832	15.450103
2.2802734	13.452016
2.2827148	11.852008
2.2851562	10.951391
2.2875977	10.978492
2.290039	11.905458
2.2924805	13.473591
2.2949219	15.386401
2.2973633	17.419895
2.2998047	19.424215
2.302246	21.297487
2.3046875	22.966537
2.307129	24.379278
2.3095703	25.503132
2.3120117	26.322285
2.3144531	26.831448
2.3168945	27.026728
2.319336	26.90088
2.3217773	26.442036
2.3242188	25.63788
2.3266602	24.481256
2.3291016	22.975462
2.331543	21.140669
2.3339844	19.020922
2.3364258	16.694077
2.3388672	14.277067
2.3413086	11.934438
2.34375	9.891985
2.3461914	8.446631
2.3486328	7.887958
2.3510742	8.260915
2.3535156	9.281598
2.355957	10.600327
2.3583984	11.990281
2.3608398	13.348619
2.3632812	14.639924
2.3657227	15.851405
2.368164	16.966064
2.3706055	17.95425
2.3730469	18.775751
2.3754883	19.383574
2.3779297	19.728796
2.380371	19.76895
2.3828125	19.477743
2.385254	18.85846
2.3876953	17.945301
2.3901367	16.798975
2.3925781	15.491593
2.3950195	14.092544
2.397461	12.656043
2.3999023	11.214132
2.4023438	9.773277
2.4047852	8.319957
2.4072266	6.8340507
2.409668	5.307061
2.4121094	3.7703018
2.4145508	2.384585
2.4169922	1.837696
2.4194336	2.8021681
2.421875	4.399347
2.4243164	6.1512218
2.4267578	7.94266
2.4291992	9.736867
2.4316406	11.517067
2.434082	13.267688
2.4365234	14.968512
2.4389648	16.592794
2.4414062	18.110266
2.4438477	19.489737
2.446289	20.70154
2.4487305	21.720726
2.4511719	22.52945
2.4536133	23.118889
2.4560547	23.489742
2.458496	23.653881
