
X-Axis: Frequency (hz)
Y-Axis: Fourier Amplitude (cm/s)
Number of Data Sets: 4


DATASET #1

Name: FAS H1 (cm/s)
Num Points: 2044
Info: 

X, Y Data:
0.009765625	0.40324065
0.012207031	0.5683568
0.014648438	0.759811
0.017089844	0.97224045
0.01953125	1.1959164
0.021972656	1.420482
0.024414062	1.6364131
0.026855469	1.8313004
0.029296875	1.9891028
0.03173828	2.0960479
0.034179688	2.144353
0.036621094	2.128619
0.0390625	2.0432093
0.041503906	1.8873957
0.043945312	1.6708997
0.04638672	1.4103612
0.048828125	1.1226282
0.05126953	0.8284301
0.053710938	0.5690992
0.056152344	0.42470658
0.05859375	0.44950145
0.061035156	0.557755
0.06347656	0.6693391
0.06591797	0.76098424
0.068359375	0.83745337
0.07080078	0.9311044
0.07324219	1.0852245
0.075683594	1.3133925
0.078125	1.5939467
0.080566406	1.8983351
0.08300781	2.2033103
0.08544922	2.4864566
0.087890625	2.7265565
0.09033203	2.9120686
0.09277344	3.0459118
0.095214844	3.1407504
0.09765625	3.2097228
0.10009766	3.259954
0.10253906	3.2905722
0.10498047	3.2932277
0.10742188	3.253472
0.10986328	3.153342
0.11230469	2.9757385
0.11474609	2.7100933
0.1171875	2.3566196
0.11962891	1.9270216
0.12207031	1.4424726
0.12451172	0.9343327
0.12695312	0.4764688
0.12939453	0.43127486
0.13183594	0.8402465
0.13427734	1.2926118
0.13671875	1.7047873
0.13916016	2.0497324
0.14160156	2.313938
0.14404297	2.499952
0.14648438	2.6360595
0.14892578	2.7859535
0.15136719	3.045952
0.1538086	3.5095797
0.15625	4.212691
0.1586914	5.1158466
0.16113281	6.1330304
0.16357422	7.164668
0.16601562	8.115225
0.16845703	8.899965
0.17089844	9.449596
0.17333984	9.71742
0.17578125	9.687558
0.17822266	9.379632
0.18066406	8.847133
0.18310547	8.170512
0.18554688	7.4458537
0.18798828	6.767674
0.19042969	6.2055373
0.1928711	5.7831063
0.1953125	5.475942
0.1977539	5.234392
0.20019531	5.015446
0.20263672	4.8024697
0.20507812	4.6057024
0.20751953	4.4494066
0.20996094	4.355632
0.21240234	4.3322806
0.21484375	4.3676543
0.21728516	4.4296765
0.21972656	4.468265
0.22216797	4.4230285
0.22460938	4.238754
0.22705078	3.8863804
0.22949219	3.3846245
0.2319336	2.8259323
0.234375	2.418491
0.2368164	2.456616
0.23925781	3.0119326
0.24169922	3.854542
0.24414062	4.762053
0.24658203	5.606028
0.24902344	6.3216734
0.25146484	6.884985
0.25390625	7.2976246
0.25634766	7.5721846
0.25878906	7.7162547
0.26123047	7.719052
0.26367188	7.5476327
0.26611328	7.157741
0.2685547	6.5171413
0.2709961	5.6341696
0.2734375	4.5835485
0.2758789	3.5261703
0.2783203	2.716234
0.28076172	2.4049375
0.28320312	2.543609
0.28564453	2.8494782
0.28808594	3.1899402
0.29052734	3.5960493
0.29296875	4.093375
0.29541016	4.597795
0.29785156	4.9480176
0.30029297	4.995225
0.30273438	4.666991
0.30517578	3.9905775
0.3076172	3.086332
0.3100586	2.1405313
0.3125	1.3538295
0.3149414	0.8298169
0.3173828	0.5106167
0.31982422	0.79326224
0.32226562	1.7955613
0.32470703	3.145958
0.32714844	4.6185813
0.32958984	5.996524
0.33203125	7.0864773
0.33447266	7.754788
0.33691406	7.957427
0.33935547	7.751978
0.34179688	7.280745
0.34423828	6.7243023
0.3466797	6.248259
0.3491211	5.9859505
0.3515625	6.05254
0.3540039	6.493988
0.3564453	7.163898
0.35888672	7.707914
0.36132812	7.6954865
0.36376953	6.773706
0.36621094	4.7805896
0.36865234	1.8099244
0.37109375	1.8257067
0.37353516	5.5376763
0.37597656	8.741875
0.37841797	10.880676
0.38085938	11.595643
0.38330078	10.809056
0.3857422	8.740437
0.3881836	5.8688126
0.390625	2.977135
0.3930664	2.1905184
0.3955078	3.8872676
0.39794922	5.3152075
0.40039062	6.063655
0.40283203	6.384657
0.40527344	6.719199
0.40771484	7.3393283
0.41015625	8.111054
0.41259766	8.666326
0.41503906	8.692182
0.41748047	8.065997
0.41992188	6.8695407
0.42236328	5.3436403
0.4248047	3.822924
0.4272461	2.7004786
0.4296875	2.337864
0.4321289	2.5783396
0.4345703	2.8367038
0.43701172	2.7116275
0.43945312	2.1056597
0.44189453	1.7586321
0.44433594	3.1787233
0.44677734	5.513667
0.44921875	7.844413
0.45166016	9.623342
0.45410156	10.478929
0.45654297	10.251749
0.45898438	9.037124
0.46142578	7.1969557
0.4638672	5.3147745
0.4663086	3.9548686
0.46875	3.049202
0.4711914	1.8333822
0.4736328	0.29091382
0.47607422	2.8883545
0.47851562	5.499778
0.48095703	7.1902757
0.48339844	7.287822
0.48583984	5.712579
0.48828125	3.618747
0.49072266	4.294709
0.49316406	6.666062
0.49560547	7.82546
0.49804688	6.9811068
0.5004883	4.662739
0.5029297	3.3435452
0.5053711	4.878332
0.5078125	5.906103
0.5102539	5.2463617
0.5126953	5.0916133
0.5151367	8.4069
0.5175781	12.666273
0.52001953	15.389731
0.52246094	15.508697
0.52490234	13.212873
0.52734375	10.020306
0.52978516	8.62243
0.53222656	10.115411
0.53466797	12.504465
0.5371094	14.677231
0.5395508	16.54051
0.5419922	17.826624
0.5444336	17.951487
0.546875	16.590542
0.5493164	14.106477
0.5517578	11.468045
0.5541992	9.7309265
0.5566406	9.473526
0.55908203	10.755815
0.56152344	13.128826
0.56396484	15.513707
0.56640625	16.644516
0.56884766	15.670484
0.57128906	12.494273
0.57373047	7.797325
0.5761719	3.1054018
0.5786133	3.643174
0.5810547	6.9211264
0.5834961	9.34482
0.5859375	11.124678
0.5883789	12.711841
0.5908203	14.10455
0.5932617	14.821142
0.5957031	14.336397
0.59814453	12.563079
0.60058594	10.226223
0.60302734	8.921556
0.60546875	9.575979
0.60791016	10.858619
0.61035156	11.332945
0.61279297	10.692559
0.6152344	9.472229
0.6176758	8.534216
0.6201172	8.254108
0.6225586	7.975081
0.625	6.7280293
0.6274414	4.621995
0.6298828	5.7057858
0.6323242	11.166082
0.6347656	17.345911
0.63720703	22.52878
0.63964844	26.022358
0.64208984	27.912785
0.64453125	28.636618
0.64697266	28.407633
0.64941406	27.085453
0.65185547	24.61015
0.6542969	21.441433
0.6567383	18.502314
0.6591797	16.542885
0.6616211	15.449076
0.6640625	14.506907
0.6665039	13.302099
0.6689453	12.077179
0.6713867	11.346808
0.6738281	11.153656
0.67626953	10.908026
0.67871094	10.044539
0.68115234	8.5187
0.68359375	6.940833
0.68603516	6.684855
0.68847656	8.768174
0.69091797	12.421334
0.6933594	16.630825
0.6958008	20.856958
0.6982422	24.956976
0.7006836	28.957302
0.703125	32.704178
0.7055664	35.735966
0.7080078	37.517574
0.7104492	37.748238
0.7128906	36.46591
0.71533203	33.968807
0.71777344	30.72445
0.72021484	27.337078
0.72265625	24.48791
0.72509766	22.768713
0.72753906	22.468964
0.72998047	23.464767
0.7324219	25.292547
0.7348633	27.368782
0.7373047	29.232038
0.7397461	30.671375
0.7421875	31.680931
0.7446289	32.314865
0.7470703	32.59178
0.7495117	32.51833
0.7519531	32.167084
0.75439453	31.707912
0.75683594	31.361563
0.75927734	31.316553
0.76171875	31.666595
0.76416016	32.3939
0.76660156	33.378387
0.76904297	34.399918
0.7714844	35.138138
0.7739258	35.2274
0.7763672	34.404854
0.7788086	32.695953
0.78125	30.493341
0.7836914	28.389069
0.7861328	26.775738
0.7885742	25.536243
0.7910156	24.170416
0.79345703	22.19217
0.79589844	19.38461
0.79833984	15.817904
0.80078125	11.775545
0.80322266	7.8059278
0.80566406	5.4329114
0.80810547	6.98821
0.8105469	10.676054
0.8129883	14.443161
0.8154297	17.484116
0.8178711	19.386333
0.8203125	20.075476
0.8227539	19.959124
0.8251953	19.912716
0.8276367	20.78469
0.8300781	22.641914
0.83251953	24.728632
0.83496094	26.10833
0.83740234	26.124731
0.83984375	24.543905
0.84228516	21.564007
0.84472656	17.729162
0.84716797	13.735889
0.8496094	10.199637
0.8520508	7.5040584
0.8544922	5.7558403
0.8569336	4.7589726
0.859375	4.2143292
0.8618164	4.2692795
0.8642578	5.4325986
0.8666992	7.6098375
0.8691406	10.275677
0.87158203	12.949781
0.87402344	15.17788
0.87646484	16.489956
0.87890625	16.484575
0.88134766	14.996841
0.88378906	12.350419
0.88623047	9.986343
0.8886719	10.910169
0.8911133	15.609198
0.8935547	21.542154
0.8959961	26.97061
0.8984375	31.061085
0.9008789	33.563362
0.9033203	34.614197
0.9057617	34.51885
0.9082031	33.57109
0.91064453	32.010452
0.91308594	30.144487
0.91552734	28.542805
0.91796875	28.090588
0.92041016	29.608334
0.92285156	33.17787
0.92529297	37.988194
0.9277344	42.805782
0.9301758	46.432285
0.9326172	47.978287
0.9350586	47.028687
0.9375	43.68
0.9399414	38.431316
0.9423828	31.991634
0.9448242	25.116627
0.9472656	18.539715
0.94970703	12.957271
0.95214844	8.993586
0.95458984	7.160195
0.95703125	7.830014
0.95947266	10.922276
0.96191406	15.824483
0.96435547	21.671215
0.9667969	27.48313
0.9692383	32.321255
0.9716797	35.4808
0.9741211	36.64996
0.9765625	35.98341
0.9790039	34.07721
0.9814453	31.848284
0.9838867	30.275164
0.9863281	29.952652
0.98876953	30.728354
0.99121094	31.873508
0.99365234	32.60782
0.99609375	32.44029
0.99853516	31.211437
1.0009766	28.987047
1.003418	25.938547
1.0058594	22.267534
1.0083008	18.17838
1.0107422	13.877078
1.0131836	9.612744
1.015625	5.9489264
1.0180664	4.870824
1.0205078	7.5120797
1.0229492	11.267595
1.0253906	14.837124
1.027832	17.679857
1.0302734	19.466196
1.0327148	20.030523
1.0351562	19.357742
1.0375977	17.53395
1.0400391	14.697939
1.0424805	11.077296
1.0449219	7.2500076
1.0473633	5.2651362
1.0498047	7.6350803
1.0522461	11.672677
1.0546875	15.424938
1.0571289	18.260473
1.0595703	19.913292
1.0620117	20.284191
1.0644531	19.436737
1.0668945	17.666039
1.0693359	15.537945
1.0717773	13.777777
1.0742188	12.939364
1.0766602	13.104255
1.0791016	14.068904
1.081543	15.720741
1.0839844	18.046389
1.0864258	20.975758
1.0888672	24.373154
1.0913086	28.10645
1.09375	32.04471
1.0961914	35.97785
1.0986328	39.55672
1.1010742	42.318462
1.1035156	43.78794
1.105957	43.59061
1.1083984	41.521366
1.1108398	37.55339
1.1132812	31.821306
1.1157227	24.634592
1.1181641	16.615118
1.1206055	9.496863
1.1230469	9.104558
1.1254883	15.305237
1.1279297	21.724836
1.1303711	26.384558
1.1328125	28.613634
1.1352539	28.25311
1.1376953	25.532486
1.1401367	21.000355
1.1425781	15.453205
1.1450195	9.926103
1.1474609	6.027393
1.1499023	5.875838
1.1523438	7.733979
1.1547852	9.176929
1.1572266	9.906759
1.159668	10.569234
1.1621094	12.101091
1.1645508	14.897952
1.1669922	18.51428
1.1694336	22.166533
1.171875	25.146759
1.1743164	26.98841
1.1767578	27.548513
1.1791992	27.041298
1.1816406	26.000998
1.184082	25.122543
1.1865234	24.953007
1.1889648	25.59458
1.1914062	26.722574
1.1938477	27.888584
1.1962891	28.762733
1.1987305	29.174877
1.2011719	29.055162
1.2036133	28.388468
1.2060547	27.215912
1.2084961	25.641418
1.2109375	23.780773
1.2133789	21.643227
1.2158203	19.054373
1.2182617	15.739039
1.2207031	11.534336
1.2231445	6.600828
1.2255859	2.2090564
1.2280273	5.128525
1.2304688	9.81597
1.2329102	14.138857
1.2353516	18.654902
1.237793	24.406406
1.2402344	32.019985
1.2426758	41.185703
1.2451172	50.89173
1.2475586	59.892914
1.25	67.06631
1.2524414	71.63917
1.2548828	73.31423
1.2573242	72.2847
1.2597656	69.12917
1.262207	64.607834
1.2646484	59.432415
1.2670898	54.107666
1.2695312	48.938637
1.2719727	44.216747
1.2744141	40.481495
1.2768555	38.585884
1.2792969	39.217793
1.2817383	42.128475
1.2841797	46.1008
1.2866211	49.684116
1.2890625	51.783176
1.2915039	51.857796
1.2939453	49.91839
1.2963867	46.43749
1.2988281	42.192307
1.3012695	38.046795
1.3037109	34.707077
1.3061523	32.53742
1.3085938	31.534142
1.3110352	31.44601
1.3134766	31.91845
1.315918	32.58853
1.3183594	33.145752
1.3208008	33.380257
1.3232422	33.18182
1.3256836	32.47448
1.328125	31.124954
1.3305664	28.92773
1.3330078	25.742018
1.3354492	21.818886
1.3378906	18.4569
1.340332	18.611774
1.3427734	24.220562
1.3452148	33.550472
1.3476562	44.3464
1.3500977	55.07023
1.3525391	64.592445
1.3549805	72.0381
1.3574219	76.78037
1.3598633	78.46215
1.3623047	77.01874
1.3647461	72.67712
1.3671875	65.93695
1.3696289	57.52136
1.3720703	48.303852
1.3745117	39.211845
1.3769531	31.109013
1.3793945	24.635303
1.3818359	19.990208
1.3842773	16.807295
1.3867188	14.39643
1.3891602	12.249617
1.3916016	10.373871
1.394043	9.319056
1.3964844	9.699688
1.3989258	11.312781
1.4013672	13.340158
1.4038086	15.158092
1.40625	16.616283
1.4086914	18.040268
1.4111328	20.02003
1.4135742	22.920597
1.4160156	26.505604
1.418457	30.073446
1.4208984	32.852802
1.4233398	34.306515
1.4257812	34.274033
1.4282227	32.98482
1.4306641	30.965857
1.4331055	28.857418
1.4355469	27.17721
1.4379883	26.121279
1.4404297	25.553143
1.4428711	25.17753
1.4453125	24.74484
1.4477539	24.169436
1.4501953	23.571983
1.4526367	23.242756
1.4550781	23.491676
1.4575195	24.41641
1.4599609	25.77736
1.4624023	27.106644
1.4648438	27.933788
1.4672852	27.960331
1.4697266	27.122026
1.472168	25.567743
1.4746094	23.580315
1.4770508	21.50222
1.4794922	19.707088
1.4819336	18.641376
1.484375	18.83466
1.4868164	20.699205
1.4892578	24.229668
1.4916992	29.01867
1.4941406	34.50337
1.496582	40.138905
1.4990234	45.46133
1.5014648	50.108746
1.5039062	53.827297
1.5063477	56.46056
1.5087891	57.925064
1.5112305	58.17876
1.5136719	57.197906
1.5161133	54.97572
1.5185547	51.54881
1.5209961	47.051765
1.5234375	41.788364
1.5258789	36.308613
1.5283203	31.459187
1.5307617	28.276865
1.5332031	27.478209
1.5356445	28.797327
1.5380859	31.162867
1.5405273	33.48762
1.5429688	35.069153
1.5454102	35.58006
1.5478516	34.959915
1.550293	33.3171
1.5527344	30.860563
1.5551758	27.866724
1.5576172	24.680763
1.5600586	21.754953
1.5625	19.670425
1.5649414	19.000223
1.5673828	19.91374
1.5698242	21.953474
1.5722656	24.340513
1.574707	26.345339
1.5771484	27.425047
1.5795898	27.242378
1.5820312	25.664688
1.5844727	22.763256
1.5869141	18.822489
1.5893555	14.392361
1.5917969	10.529891
1.5942383	9.174281
1.5966797	11.249887
1.5991211	14.847343
1.6015625	18.358004
1.6040039	21.073324
1.6064453	22.675648
1.6088867	23.045301
1.6113281	22.19981
1.6137695	20.265806
1.6162109	17.460861
1.6186523	14.082313
1.6210938	10.502542
1.6235352	7.1828566
1.6259766	4.728764
1.628418	3.8440554
1.6308594	4.427942
1.6333008	5.8765903
1.6357422	8.370578
1.6381836	12.211894
1.640625	17.295952
1.6430664	23.22034
1.6455078	29.458002
1.6479492	35.456646
1.6503906	40.707382
1.652832	44.79357
1.6552734	47.42336
1.6577148	48.449757
1.6601562	47.87995
1.6625977	45.878258
1.6650391	42.768803
1.6674805	39.03265
1.6699219	35.29534
1.6723633	32.265167
1.6748047	30.553165
1.6772461	30.38595
1.6796875	31.461512
1.6821289	33.153423
1.6845703	34.842365
1.6870117	36.08682
1.6894531	36.640865
1.6918945	36.409454
1.6943359	35.397415
1.6967773	33.671993
1.6992188	31.337576
1.7016602	28.524569
1.7041016	25.378654
1.706543	22.05096
1.7089844	18.680805
1.7114258	15.380002
1.7138672	12.223172
1.7163086	9.2487135
1.71875	6.4727535
1.7211914	3.9084156
1.7236328	1.5792098
1.7260742	0.47581184
1.7285156	2.212414
1.730957	3.6038299
1.7333984	4.673635
1.7358398	5.5272527
1.7382812	6.3655357
1.7407227	7.434505
1.7431641	8.910654
1.7456055	10.8137
1.7480469	13.025235
1.7504883	15.360065
1.7529297	17.62236
1.7553711	19.639532
1.7578125	21.279882
1.7602539	22.461676
1.7626953	23.149727
1.7651367	23.349487
1.7675781	23.095015
1.7700195	22.440594
1.7724609	21.456787
1.7749023	20.231897
1.7773438	18.869154
1.7797852	17.473658
1.7822266	16.125416
1.784668	14.848558
1.7871094	13.599365
1.7895508	12.291087
1.7919922	10.866818
1.7944336	9.407999
1.796875	8.279699
1.7993164	8.149767
1.8017578	9.434818
1.8041992	11.769263
1.8066406	14.517574
1.809082	17.219042
1.8115234	19.626356
1.8139648	21.66404
1.8164062	23.384243
1.8188477	24.916567
1.8212891	26.407745
1.8237305	27.960066
1.8261719	29.579832
1.8286133	31.154785
1.8310547	32.46565
1.8334961	33.238457
1.8359375	33.207855
1.8383789	32.181988
1.8408203	30.091524
1.8432617	27.036667
1.8457031	23.348055
1.8481445	19.677645
1.8505859	17.07108
1.8530273	16.626143
1.8554688	18.445938
1.8579102	21.502817
1.8603516	24.727139
1.862793	27.47327
1.8652344	29.437141
1.8676758	30.528217
1.8701172	30.787899
1.8725586	30.329866
1.875	29.299032
1.8774414	27.843689
1.8798828	26.100155
1.8823242	24.186684
1.8847656	22.198652
1.887207	20.208147
1.8896484	18.27796
1.8920898	16.496574
1.8945312	15.032983
1.8969727	14.170917
1.8994141	14.225326
1.9018555	15.318056
1.9042969	17.240023
1.9067383	19.58235
1.9091797	21.926117
1.9116211	23.930588
1.9140625	25.355988
1.9165039	26.068037
1.9189453	26.036777
1.9213867	25.326279
1.9238281	24.069008
1.9262695	22.435665
1.9287109	20.606632
1.9311523	18.751698
1.9335938	17.018177
1.9360352	15.521564
1.9384766	14.336745
1.940918	13.493953
1.9433594	12.982128
1.9458008	12.756342
1.9482422	12.745048
1.9506836	12.856512
1.953125	12.982201
1.9555664	13.005786
1.9580078	12.810867
1.9604492	12.28975
1.9628906	11.355682
1.965332	9.959847
1.9677734	8.118089
1.9702148	5.9635386
1.9726562	3.9420166
1.9750977	3.4389281
1.9775391	5.182875
1.9799805	7.6361
1.9824219	9.97579
1.9848633	11.90731
1.9873047	13.334032
1.9897461	14.31074
1.9921875	15.044992
1.9946289	15.867967
1.9970703	17.130228
1.9995117	19.03711
2.0019531	21.55183
2.0043945	24.448357
2.006836	27.433693
2.0092773	30.236345
2.0117188	32.637268
2.0141602	34.471386
2.0166016	35.618507
2.019043	36.00001
2.0214844	35.582607
2.0239258	34.389343
2.0263672	32.509277
2.0288086	30.103647
2.03125	27.40501
2.0336914	24.715136
2.0361328	22.38492
2.0385742	20.758186
2.0410156	20.0502
2.043457	20.222054
2.0458984	20.989925
2.0483398	21.971804
2.0507812	22.825605
2.0532227	23.307196
2.055664	23.277239
2.0581055	22.696888
2.0605469	21.622023
2.0629883	20.203794
2.0654297	18.687153
2.067871	17.396183
2.0703125	16.660473
2.072754	16.663286
2.0751953	17.312002
2.0776367	18.281849
2.0800781	19.18052
2.0825195	19.670595
2.084961	19.5114
2.0874023	18.561369
2.0898438	16.768473
2.0922852	14.15466
2.0947266	10.796628
2.097168	6.8108244
2.0996094	2.4216967
2.1020508	2.9015057
2.1044922	7.945554
2.1069336	13.168097
2.109375	18.331446
2.1118164	23.261477
2.1142578	27.796152
2.1166992	31.791443
2.1191406	35.135498
2.121582	37.757553
2.1240234	39.632072
2.1264648	40.77906
2.1289062	41.258907
2.1313477	41.16424
2.133789	40.607334
2.1362305	39.706516
2.1386719	38.575745
2.1411133	37.317574
2.1435547	36.01796
2.145996	34.745884
2.1484375	33.554874
2.150879	32.488052
2.1533203	31.580738
2.1557617	30.855001
2.1582031	30.309566
2.1606445	29.91335
2.163086	29.607233
2.1655273	29.312595
2.1679688	28.942368
2.1704102	28.412968
2.1728516	27.65797
2.175293	26.64123
2.1777344	25.364502
2.1801758	23.864454
2.1826172	22.199783
2.1850586	20.436583
2.1875	18.635159
2.1899414	16.846045
2.1923828	15.112604
2.1948242	13.480913
2.1972656	12.00558
2.199707	10.739923
2.2021484	9.70912
2.2045898	8.885825
2.2070312	8.205208
2.2094727	7.6310873
2.211914	7.2374706
2.2143555	7.2316
2.2167969	7.8215647
2.2192383	9.006522
2.2216797	10.562571
2.224121	12.201475
2.2265625	13.682545
2.229004	14.844355
2.2314453	15.606049
2.2338867	15.954855
2.2363281	15.929399
2.2387695	15.601699
2.241211	15.05957
2.2436523	14.391446
2.2460938	13.676356
2.2485352	12.983489
2.2509766	12.377687
2.253418	11.922709
2.2558594	11.675308
2.2583008	11.673443
2.2607422	11.925846
2.2631836	12.410473
2.265625	13.080623
2.2680664	13.874616
2.2705078	14.719934
2.2729492	15.536192
2.2753906	16.235996
2.277832	16.728798
2.2802734	16.92667
2.2827148	16.750502
2.2851562	16.14039
2.2875977	15.067182
2.290039	13.546362
2.2924805	11.650486
2.2949219	9.529438
2.2973633	7.4528365
2.2998047	5.9099965
2.302246	5.5805144
2.3046875	6.589777
2.307129	8.284331
2.3095703	10.105159
2.3120117	11.775455
2.3144531	13.166003
2.3168945	14.220823
2.319336	14.932567
2.3217773	15.335
2.3242188	15.502035
2.3266602	15.540044
2.3291016	15.567639
2.331543	15.683742
2.3339844	15.938505
2.3364258	16.32611
2.3388672	16.800951
2.3413086	17.30531
2.34375	17.790909
2.3461914	18.22236
2.3486328	18.569445
2.3510742	18.79423
2.3535156	18.843864
2.355957	18.650717
2.3583984	18.144167
2.3608398	17.265434
2.3632812	15.982474
2.3657227	14.301315
2.368164	12.276639
2.3706055	10.034207
2.3730469	7.833215
2.3754883	6.217157
2.3779297	6.035041
2.380371	7.468918
2.3828125	9.746564
2.385254	12.242454
2.3876953	14.653934
2.3901367	16.83756
2.3925781	18.727396
2.3950195	20.301464
2.397461	21.563517
2.3999023	22.532217
2.4023438	23.23103
2.4047852	23.680023
2.4072266	23.890265
2.409668	23.862383
2.4121094	23.589706
2.4145508	23.062984
2.4169922	22.27555
2.4194336	21.227556
2.421875	19.932142
2.4243164	18.42308
2.4267578	16.76063
2.4291992	15.036518
2.4316406	13.37417
2.434082	11.921125
2.4365234	10.825354
2.4389648	10.188251
2.4414062	10.014136
2.4438477	10.204551
2.446289	10.613441
2.4487305	11.109144
