
X-Axis: Frequency (hz)
Y-Axis: Fourier Amplitude (cm/s)
Number of Data Sets: 4


DATASET #1

Name: FAS H1 (cm/s)
Num Points: 2044
Info: 

X, Y Data:
0.009765625	0.58724374
0.012207031	0.79330623
0.014648438	1.0245483
0.017089844	1.2712942
0.01953125	1.5201968
0.021972656	1.7590225
0.024414062	1.981765
0.026855469	2.193999
0.029296875	2.4172935
0.03173828	2.6852276
0.034179688	3.0258892
0.036621094	3.4416187
0.0390625	3.9016628
0.041503906	4.34938
0.043945312	4.716601
0.04638672	4.940704
0.048828125	4.980466
0.05126953	4.8282633
0.053710938	4.52074
0.056152344	4.1474333
0.05859375	3.8431761
0.061035156	3.7354963
0.06347656	3.8491147
0.06591797	4.072447
0.068359375	4.2378545
0.07080078	4.210859
0.07324219	3.9357312
0.075683594	3.474833
0.078125	3.090862
0.080566406	3.2648785
0.08300781	4.2190604
0.08544922	5.6589007
0.087890625	7.237095
0.09033203	8.712313
0.09277344	9.917054
0.095214844	10.745332
0.09765625	11.160021
0.10009766	11.201962
0.10253906	10.99795
0.10498047	10.763456
0.10742188	10.765474
0.10986328	11.207598
0.11230469	12.106393
0.11474609	13.299347
0.1171875	14.561168
0.11962891	15.708519
0.12207031	16.667553
0.12451172	17.516478
0.12695312	18.475334
0.12939453	19.817453
0.13183594	21.733477
0.13427734	24.22817
0.13671875	27.109114
0.13916016	30.064333
0.14160156	32.778408
0.14404297	35.02417
0.14648438	36.701378
0.14892578	37.83953
0.15136719	38.58781
0.1538086	39.17766
0.15625	39.840115
0.1586914	40.716164
0.16113281	41.822926
0.16357422	43.08311
0.16601562	44.37545
0.16845703	45.584003
0.17089844	46.64331
0.17333984	47.563107
0.17578125	48.41636
0.17822266	49.30596
0.18066406	50.33919
0.18310547	51.612186
0.18554688	53.182255
0.18798828	55.02723
0.19042969	57.02705
0.1928711	58.99197
0.1953125	60.714916
0.1977539	62.022682
0.20019531	62.82572
0.20263672	63.15983
0.20507812	63.180996
0.20751953	63.089764
0.20996094	63.023262
0.21240234	62.982487
0.21484375	62.824627
0.21728516	62.31726
0.21972656	61.241768
0.22216797	59.508953
0.22460938	57.220425
0.22705078	54.629642
0.22949219	52.01611
0.2319336	49.527092
0.234375	47.05947
0.2368164	44.258076
0.23925781	40.660736
0.24169922	35.92261
0.24414062	30.011032
0.24658203	23.329422
0.24902344	16.844667
0.25146484	12.317904
0.25390625	11.524606
0.25634766	13.125199
0.25878906	14.461495
0.26123047	14.599113
0.26367188	14.124802
0.26611328	14.507971
0.2685547	16.61761
0.2709961	19.584318
0.2734375	21.879065
0.2758789	22.422596
0.2783203	20.886227
0.28076172	17.784609
0.28320312	14.61902
0.28564453	13.666557
0.28808594	15.726908
0.29052734	19.049238
0.29296875	22.092945
0.29541016	24.421509
0.29785156	26.183851
0.30029297	27.552286
0.30273438	28.411343
0.30517578	28.444866
0.3076172	27.484629
0.3100586	25.834036
0.3125	24.347893
0.3149414	24.054543
0.3173828	25.34842
0.31982422	27.637346
0.32226562	29.90791
0.32470703	31.28629
0.32714844	31.179352
0.32958984	29.305117
0.33203125	25.829262
0.33447266	21.599283
0.33691406	18.206657
0.33935547	16.962694
0.34179688	16.928228
0.34423828	15.74998
0.3466797	12.397593
0.3491211	10.167678
0.3515625	16.072485
0.3540039	26.28889
0.3564453	35.70447
0.35888672	41.714546
0.36132812	43.40132
0.36376953	41.83129
0.36621094	40.001278
0.36865234	40.86468
0.37109375	43.92449
0.37353516	45.694675
0.37597656	43.16915
0.37841797	35.594925
0.38085938	24.950735
0.38330078	17.091799
0.3857422	19.096409
0.3881836	24.651886
0.390625	26.834717
0.3930664	25.078932
0.3955078	23.22477
0.39794922	26.462917
0.40039062	33.596222
0.40283203	39.521843
0.40527344	40.921635
0.40771484	36.782063
0.41015625	28.057821
0.41259766	17.738945
0.41503906	12.439813
0.41748047	15.940603
0.41992188	19.079735
0.42236328	17.04186
0.4248047	10.294913
0.4272461	10.88517
0.4296875	24.099258
0.4321289	37.23042
0.4345703	45.509045
0.43701172	46.91328
0.43945312	42.554615
0.44189453	37.943665
0.44433594	40.50251
0.44677734	49.089836
0.44921875	55.929024
0.45166016	55.89427
0.45410156	48.25425
0.45654297	36.79047
0.45898438	30.221634
0.46142578	34.08434
0.4638672	39.990803
0.4663086	40.070484
0.46875	32.246407
0.4711914	18.271795
0.4736328	6.9076295
0.47607422	18.861324
0.47851562	30.5045
0.48095703	35.630505
0.48339844	33.514217
0.48583984	25.50486
0.48828125	14.540074
0.49072266	5.1362343
0.49316406	5.303978
0.49560547	5.9757996
0.49804688	8.200232
0.5004883	21.39824
0.5029297	40.06911
0.5053711	59.211224
0.5078125	74.04914
0.5102539	80.34987
0.5126953	75.41997
0.5151367	59.058758
0.5175781	34.42274
0.52001953	14.649233
0.52246094	31.443466
0.52490234	50.74996
0.52734375	59.539654
0.52978516	56.556885
0.53222656	44.906395
0.53466797	31.359556
0.5371094	24.826223
0.5395508	26.320412
0.5419922	27.579885
0.5444336	25.944183
0.546875	24.019012
0.5493164	24.117981
0.5517578	25.507019
0.5541992	28.266912
0.5566406	34.727005
0.55908203	44.633183
0.56152344	54.122852
0.56396484	59.223576
0.56640625	58.08997
0.56884766	51.841084
0.57128906	44.366272
0.57373047	40.09092
0.5761719	39.54425
0.5786133	39.553123
0.5810547	38.68805
0.5834961	38.75714
0.5859375	41.381657
0.5883789	45.010452
0.5908203	46.914486
0.5932617	45.842205
0.5957031	42.261658
0.59814453	37.324566
0.60058594	31.739208
0.60302734	25.415295
0.60546875	18.738552
0.60791016	16.703808
0.61035156	25.562151
0.61279297	39.565624
0.6152344	53.02502
0.6176758	63.19978
0.6201172	69.28715
0.6225586	71.66839
0.625	70.74399
0.6274414	66.381744
0.6298828	58.69777
0.6323242	49.280758
0.6347656	41.33076
0.63720703	37.5055
0.63964844	36.922535
0.64208984	36.655293
0.64453125	35.172386
0.64697266	32.61442
0.64941406	29.678068
0.65185547	27.124762
0.6542969	25.90911
0.6567383	26.868784
0.6591797	29.99453
0.6616211	34.744995
0.6640625	40.851093
0.6665039	48.14659
0.6689453	55.934002
0.6713867	63.036232
0.6738281	68.59036
0.67626953	72.70854
0.67871094	76.22118
0.68115234	79.64265
0.68359375	82.60872
0.68603516	84.49907
0.68847656	85.16967
0.69091797	84.71821
0.6933594	82.86318
0.6958008	79.129234
0.6982422	73.699356
0.7006836	67.74279
0.703125	62.697975
0.7055664	59.259857
0.7080078	57.161915
0.7104492	55.74856
0.7128906	54.525444
0.71533203	53.484955
0.71777344	53.306232
0.72021484	55.081062
0.72265625	59.338947
0.72509766	65.30194
0.72753906	71.32368
0.72998047	75.85164
0.7324219	77.96247
0.7348633	77.35353
0.7373047	74.08007
0.7397461	68.38187
0.7421875	60.81484
0.7446289	52.737263
0.7470703	46.927757
0.7495117	46.98159
0.7519531	53.779182
0.75439453	64.05274
0.75683594	73.62405
0.75927734	79.360176
0.76171875	79.53687
0.76416016	74.052704
0.76660156	64.87175
0.76904297	57.030617
0.7714844	58.19181
0.7739258	70.73094
0.7763672	88.26697
0.7788086	103.73231
0.78125	112.76919
0.7836914	113.52263
0.7861328	106.17242
0.7885742	92.57575
0.7910156	75.98591
0.79345703	60.497437
0.79589844	49.475483
0.79833984	43.08833
0.80078125	38.634674
0.80322266	35.07018
0.80566406	35.929127
0.80810547	44.7567
0.8105469	58.678963
0.8129883	72.49704
0.8154297	82.472534
0.8178711	86.670105
0.8203125	84.68678
0.8227539	77.30173
0.8251953	66.15735
0.8276367	53.529457
0.8300781	42.194412
0.83251953	35.254498
0.83496094	34.95486
0.83740234	40.81368
0.83984375	50.972378
0.84228516	64.0351
0.84472656	78.643974
0.84716797	93.03143
0.8496094	105.20516
0.8520508	113.29087
0.8544922	115.78812
0.8569336	111.80398
0.859375	101.36269
0.8618164	85.81299
0.8642578	68.41876
0.8666992	55.17339
0.8691406	52.980167
0.87158203	60.937187
0.87402344	71.24795
0.87646484	78.54144
0.87890625	81.05521
0.88134766	79.19774
0.88378906	74.49347
0.88623047	68.728134
0.8886719	63.210323
0.8911133	58.532608
0.8935547	55.150394
0.8959961	54.146774
0.8984375	56.90072
0.9008789	63.59591
0.9033203	72.672195
0.9057617	81.92083
0.9082031	89.62047
0.91064453	95.01935
0.91308594	98.27934
0.91552734	99.99266
0.91796875	100.55732
0.92041016	99.85893
0.92285156	97.46172
0.92529297	93.06643
0.9277344	86.88571
0.9301758	79.76205
0.9326172	72.94806
0.9350586	67.57199
0.9375	64.09491
0.9399414	62.30991
0.9423828	61.908154
0.9448242	62.902805
0.9472656	65.44961
0.94970703	69.45513
0.95214844	74.62557
0.95458984	80.96824
0.95703125	89.070984
0.95947266	99.60189
0.96191406	112.34264
0.96435547	125.75132
0.9667969	137.4477
0.9692383	145.07664
0.9716797	146.99182
0.9741211	142.5908
0.9765625	132.3219
0.9790039	117.37968
0.9814453	99.15049
0.9838867	78.62226
0.9863281	56.171886
0.98876953	32.267414
0.99121094	13.933143
0.99365234	30.189278
0.99609375	55.9085
0.99853516	78.61768
1.0009766	94.67591
1.003418	102.01925
1.0058594	100.22156
1.0083008	90.5618
1.0107422	75.75996
1.0131836	59.61358
1.015625	46.923874
1.0180664	42.986988
1.0205078	49.42173
1.0229492	62.50591
1.0253906	78.37676
1.027832	94.32433
1.0302734	108.07172
1.0327148	117.84786
1.0351562	122.8186
1.0375977	123.28699
1.0400391	120.42064
1.0424805	115.55016
1.0449219	109.41716
1.0473633	101.90464
1.0498047	92.43903
1.0522461	80.63853
1.0546875	66.69259
1.0571289	51.371544
1.0595703	36.180157
1.0620117	25.384989
1.0644531	28.672703
1.0668945	44.848877
1.0693359	65.50295
1.0717773	86.89133
1.0742188	107.25681
1.0766602	125.83365
1.0791016	142.60477
1.081543	157.81891
1.0839844	171.30675
1.0864258	182.09189
1.0888672	188.65167
1.0913086	189.65323
1.09375	184.64662
1.0961914	174.3226
1.0986328	160.26448
1.1010742	144.37332
1.1035156	128.26254
1.105957	112.9502
1.1083984	99.01761
1.1108398	87.07002
1.1132812	78.05767
1.1157227	73.15425
1.1181641	73.22758
1.1206055	78.22671
1.1230469	86.96682
1.1254883	97.473015
1.1279297	107.71343
1.1303711	116.52116
1.1328125	124.3653
1.1352539	133.23851
1.1376953	145.05031
1.1401367	159.45395
1.1425781	173.36176
1.1450195	182.59818
1.1474609	184.0838
1.1499023	177.43303
1.1523438	165.68968
1.1547852	154.77965
1.1572266	150.6736
1.159668	154.89093
1.1621094	163.42857
1.1645508	170.75832
1.1669922	173.36577
1.1694336	170.41054
1.171875	162.79753
1.1743164	151.91577
1.1767578	138.90012
1.1791992	124.95348
1.1816406	112.47375
1.184082	105.63077
1.1865234	108.14784
1.1889648	119.13934
1.1914062	133.32912
1.1938477	145.06595
1.1962891	150.61679
1.1987305	148.5117
1.2011719	139.2401
1.2036133	124.74025
1.2060547	107.77611
1.2084961	91.20825
1.2109375	77.25075
1.2133789	67.120895
1.2158203	61.641464
1.2182617	61.98688
1.2207031	68.51243
1.2231445	79.011055
1.2255859	89.618965
1.2280273	96.76659
1.2304688	98.29223
1.2329102	93.968506
1.2353516	85.71869
1.237793	77.28638
1.2402344	72.54631
1.2426758	72.42447
1.2451172	73.9766
1.2475586	73.2972
1.25	67.97739
1.2524414	57.457428
1.2548828	42.52509
1.2573242	24.927864
1.2597656	10.485991
1.262207	20.82745
1.2646484	38.794563
1.2670898	54.655487
1.2695312	66.07233
1.2719727	71.528854
1.2744141	70.198586
1.2768555	62.130558
1.2792969	48.37208
1.2817383	31.063349
1.2841797	14.962474
1.2866211	17.155367
1.2890625	32.039806
1.2915039	45.6682
1.2939453	56.03673
1.2963867	63.21145
1.2988281	68.050026
1.3012695	71.82164
1.3037109	75.88723
1.3061523	81.32813
1.3085938	88.54424
1.3110352	97.02873
1.3134766	105.50979
1.315918	112.41706
1.3183594	116.42197
1.3208008	116.81645
1.3232422	113.58824
1.3256836	107.17079
1.328125	97.97404
1.3305664	85.95863
1.3330078	70.56269
1.3354492	51.184544
1.3378906	28.479044
1.340332	15.164244
1.3427734	37.87944
1.3452148	67.17
1.3476562	94.37528
1.3500977	116.5103
1.3525391	131.82715
1.3549805	139.6929
1.3574219	140.52019
1.3598633	135.49907
1.3623047	126.22081
1.3647461	114.31417
1.3671875	101.25045
1.3696289	88.38618
1.3720703	77.243256
1.3745117	69.76472
1.3769531	67.90081
1.3793945	72.14121
1.3818359	80.71147
1.3842773	90.73154
1.3867188	99.512955
1.3891602	105.0398
1.3916016	106.07701
1.394043	102.17399
1.3964844	93.57319
1.3989258	81.09767
1.4013672	66.35852
1.4038086	53.026653
1.40625	49.22267
1.4086914	61.861645
1.4111328	86.117676
1.4135742	114.76317
1.4160156	143.2766
1.418457	168.75838
1.4208984	189.4113
1.4233398	204.42612
1.4257812	213.78992
1.4282227	217.97629
1.4306641	217.62349
1.4331055	213.38324
1.4355469	205.99698
1.4379883	196.54987
1.4404297	186.67006
1.4428711	178.3683
1.4453125	173.37596
1.4477539	172.29176
1.4501953	174.24377
1.4526367	177.40645
1.4550781	179.87656
1.4575195	180.27878
1.4599609	177.90993
1.4624023	172.5792
1.4648438	164.3819
1.4672852	153.6305
1.4697266	141.03061
1.472168	127.93343
1.4746094	116.32598
1.4770508	108.19943
1.4794922	104.36401
1.4819336	103.81823
1.484375	104.64705
1.4868164	105.58939
1.4892578	106.82565
1.4916992	109.54412
1.4941406	114.687
1.496582	121.86856
1.4990234	129.3973
1.5014648	135.14395
1.5039062	137.36917
1.5063477	135.14578
1.5087891	128.4927
1.5112305	118.43608
1.5136719	107.16222
1.5161133	98.23576
1.5185547	96.05095
1.5209961	103.1851
1.5234375	117.9011
1.5258789	135.70363
1.5283203	152.1173
1.5307617	163.79555
1.5332031	168.72675
1.5356445	166.29224
1.5380859	157.35873
1.5405273	144.40273
1.5429688	131.58327
1.5454102	124.12663
1.5478516	125.76655
1.550293	135.58235
1.5527344	148.78372
1.5551758	160.3268
1.5576172	167.02676
1.5600586	167.87694
1.5625	163.59198
1.5649414	155.8193
1.5673828	146.29883
1.5698242	136.38043
1.5722656	127.15419
1.574707	119.88577
1.5771484	115.90634
1.5795898	115.66878
1.5820312	117.98718
1.5844727	120.65494
1.5869141	121.80759
1.5893555	120.76685
1.5917969	117.98606
1.5942383	114.43003
1.5966797	110.8608
1.5991211	107.52911
1.6015625	104.39359
1.6040039	101.51865
1.6064453	99.1986
1.6088867	97.74232
1.6113281	97.19521
1.6137695	97.27916
1.6162109	97.535255
1.6186523	97.50125
1.6210938	96.78323
1.6235352	95.041504
1.6259766	91.95313
1.628418	87.224075
1.6308594	80.683365
1.6333008	72.459885
1.6357422	63.20323
1.6381836	54.356453
1.640625	48.32599
1.6430664	47.659447
1.6455078	52.625885
1.6479492	60.608692
1.6503906	68.4189
1.652832	73.72808
1.6552734	75.366455
1.6577148	73.52104
1.6601562	70.04149
1.6625977	68.43765
1.6650391	72.404526
1.6674805	82.90265
1.6699219	97.666016
1.6723633	113.59567
1.6748047	128.35535
1.6772461	140.65834
1.6796875	150.0796
1.6821289	156.71098
1.6845703	160.68303
1.6870117	161.72609
1.6894531	159.01228
1.6918945	151.40779
1.6943359	137.98628
1.6967773	118.50929
1.6992188	93.67649
1.7016602	65.119675
1.7041016	35.409424
1.706543	11.987965
1.7089844	25.828836
1.7114258	46.334972
1.7138672	61.2534
1.7163086	69.25115
1.71875	70.31514
1.7211914	65.33542
1.7236328	56.002483
1.7260742	44.733753
1.7285156	34.739124
1.730957	29.807663
1.7333984	31.509756
1.7358398	37.02528
1.7382812	43.400333
1.7407227	49.745
1.7431641	56.403515
1.7456055	63.838142
1.7480469	71.772705
1.7504883	78.91972
1.7529297	83.34677
1.7553711	83.10975
1.7578125	76.87176
1.7602539	64.501816
1.7626953	48.167118
1.7651367	36.15237
1.7675781	44.029984
1.7700195	67.56169
1.7724609	94.219765
1.7749023	118.28211
1.7773438	136.9166
1.7797852	148.67172
1.7822266	153.10275
1.784668	150.6118
1.7871094	142.45558
1.7895508	131.0198
1.7919922	120.14908
1.7944336	114.66906
1.796875	117.82162
1.7993164	128.35861
1.8017578	141.58226
1.8041992	152.62854
1.8066406	158.1937
1.809082	156.8056
1.8115234	148.62906
1.8139648	135.12697
1.8164062	118.67986
1.8188477	102.09138
1.8212891	87.85156
1.8237305	77.18561
1.8261719	69.552315
1.8286133	63.333958
1.8310547	57.15024
1.8334961	50.5405
1.8359375	43.89804
1.8383789	38.244335
1.8408203	35.246754
1.8432617	36.92208
1.8457031	44.03506
1.8481445	55.280155
1.8505859	68.55702
1.8530273	81.891846
1.8554688	93.60921
1.8579102	102.37553
1.8603516	107.2994
1.862793	108.0568
1.8652344	104.9752
1.8676758	99.02386
1.8701172	91.68199
1.8725586	84.64228
1.875	79.30973
1.8774414	76.21768
1.8798828	74.806885
1.8823242	73.88012
1.8847656	72.348434
1.887207	69.764725
1.8896484	66.499374
1.8920898	63.650032
1.8945312	62.612465
1.8969727	64.29134
1.8994141	68.449875
1.9018555	73.87785
1.9042969	79.11304
1.9067383	82.985
1.9091797	84.817116
1.9116211	84.459816
1.9140625	82.25287
1.9165039	78.93498
1.9189453	75.455894
1.9213867	72.69309
1.9238281	71.15647
1.9262695	70.877556
1.9287109	71.567894
1.9311523	72.8633
1.9335938	74.418335
1.9360352	75.81652
1.9384766	76.41461
1.940918	75.30777
1.9433594	71.52606
1.9458008	64.48798
1.9482422	54.760303
1.9506836	45.408474
1.953125	43.362175
1.9555664	53.561836
1.9580078	71.45577
1.9604492	90.69783
1.9628906	107.21538
1.965332	118.52011
1.9677734	123.24422
1.9702148	120.99149
1.9726562	112.22382
1.9750977	98.10316
1.9775391	80.29124
1.9799805	60.78311
1.9824219	41.933487
1.9848633	27.174606
1.9873047	22.222075
1.9897461	27.348688
1.9921875	34.667206
1.9946289	40.236713
1.9970703	43.222565
1.9995117	43.88675
2.0019531	42.99366
2.0043945	41.50959
2.006836	40.31131
2.0092773	39.969933
2.0117188	40.79169
2.0141602	43.058353
2.0166016	47.14804
2.019043	53.33529
2.0214844	61.517902
2.0239258	71.218285
2.0263672	81.81746
2.0288086	92.77428
2.03125	103.67664
2.0336914	114.16371
2.0361328	123.83469
2.0385742	132.20619
2.0410156	138.74704
2.043457	142.9639
2.0458984	144.4952
2.0483398	143.1873
2.0507812	139.09912
2.0532227	132.45074
2.055664	123.55294
2.0581055	112.77352
2.0605469	100.5521
2.0629883	87.415565
2.0654297	73.97015
2.067871	60.84548
2.0703125	48.615993
2.072754	37.694946
2.0751953	28.246382
2.0776367	20.162899
2.0800781	13.185555
2.0825195	7.4130683
2.084961	5.878284
2.0874023	10.984306
2.0898438	18.26184
2.0922852	26.273605
2.0947266	34.469425
2.097168	42.312397
2.0996094	49.216343
2.1020508	54.575237
2.1044922	57.80441
2.1069336	58.407413
2.109375	56.068092
2.1118164	50.762203
2.1142578	42.87629
2.1166992	33.408257
2.1191406	24.524937
2.121582	20.52124
2.1240234	24.174263
2.1264648	31.25625
2.1289062	37.561737
2.1313477	41.34262
2.133789	42.232544
2.1362305	40.868053
2.1386719	38.864574
2.1411133	38.595474
2.1435547	41.980064
2.145996	48.928314
2.1484375	57.74287
2.150879	66.552536
2.1533203	73.96755
2.1557617	79.22545
2.1582031	82.26255
2.1606445	83.74218
2.163086	84.90583
2.1655273	87.10342
2.1679688	91.0841
2.1704102	96.52894
2.1728516	102.23535
2.175293	106.72846
2.1777344	108.80619
2.1801758	107.8065
2.1826172	103.63892
2.1850586	96.68624
2.1875	87.68144
2.1899414	77.6275
2.1923828	67.782104
2.1948242	59.649624
2.1972656	54.729618
2.199707	53.72562
2.2021484	55.800564
2.2045898	59.033836
2.2070312	61.557358
2.2094727	62.20346
2.211914	60.65139
2.2143555	57.422073
2.2167969	53.82681
2.2192383	51.71025
2.2216797	52.6318
2.224121	56.770065
2.2265625	62.854908
2.229004	69.139206
2.2314453	74.13709
2.2338867	76.80629
2.2363281	76.50252
2.2387695	72.911606
2.241211	66.00082
2.2436523	56.006634
2.2460938	43.438015
2.2485352	29.077097
2.2509766	13.991776
2.253418	3.5079825
2.2558594	15.638906
2.2583008	27.266129
2.2607422	36.287384
2.2631836	42.314888
2.265625	45.325233
2.2680664	45.602913
2.2705078	43.72339
2.2729492	40.572685
2.2753906	37.377815
2.277832	35.557663
2.2802734	36.083366
2.2827148	38.704365
2.2851562	42.127518
2.2875977	44.88757
2.290039	45.898968
2.2924805	44.609234
2.2949219	41.024033
2.2973633	35.74656
2.2998047	30.123308
2.302246	26.42741
2.3046875	26.997488
2.307129	31.70309
2.3095703	38.26692
2.3120117	44.73146
2.3144531	50.019936
2.3168945	53.65755
2.319336	55.5352
2.3217773	55.78898
2.3242188	54.77862
2.3266602	53.149025
2.3291016	51.897953
2.331543	52.26299
2.3339844	55.21621
2.3364258	60.799488
2.3388672	68.010895
2.3413086	75.30776
2.34375	81.15462
2.3461914	84.32156
2.3486328	84.007805
2.3510742	79.871315
2.3535156	72.01026
2.355957	60.90579
2.3583984	47.33897
2.3608398	32.313248
2.3632812	17.110218
2.3657227	6.0034885
2.368164	14.243715
2.3706055	25.283228
2.3730469	34.11397
2.3754883	40.27419
2.3779297	43.863857
2.380371	45.35045
2.3828125	45.50526
2.385254	45.29016
2.3876953	45.651497
2.3901367	47.237896
2.3925781	50.196545
2.3950195	54.216663
2.397461	58.769543
2.3999023	63.339462
2.4023438	67.5316
2.4047852	71.0909
2.4072266	73.88275
2.409668	75.87144
2.4121094	77.10543
2.4145508	77.69898
2.4169922	77.81226
2.4194336	77.62969
2.421875	77.3257
2.4243164	77.01352
2.4267578	76.69252
2.4291992	76.209625
2.4316406	75.27553
2.434082	73.52352
2.4365234	70.59521
2.4389648	66.223785
2.4414062	60.29158
2.4438477	52.857834
2.446289	44.16493
2.4487305	34.61336
2.4511719	24.723772
2.4536133	15.087574
2.4560547	6.351429
2.458496	1.8541777
2.4609375	6.945438
2.463379	10.292561
2.4658203	11.39553
