
X-Axis: Frequency (hz)
Y-Axis: Fourier Amplitude (cm/s)
Number of Data Sets: 4


DATASET #1

Name: FAS H1 (cm/s)
Num Points: 2044
Info: 

X, Y Data:
0.009765625	0.099427864
0.012207031	0.17054872
0.014648438	0.26887476
0.017089844	0.39518425
0.01953125	0.5464842
0.021972656	0.71505314
0.024414062	0.8883874
0.026855469	1.0506142
0.029296875	1.186184
0.03173828	1.2861427
0.034179688	1.356855
0.036621094	1.4287639
0.0390625	1.555639
0.041503906	1.7896686
0.043945312	2.1444857
0.04638672	2.5871482
0.048828125	3.0593615
0.05126953	3.4990337
0.053710938	3.8549416
0.056152344	4.0997677
0.05859375	4.2446084
0.061035156	4.3535337
0.06347656	4.5483875
0.06591797	4.9795995
0.068359375	5.7552147
0.07080078	6.888162
0.07324219	8.313895
0.075683594	9.936125
0.078125	11.654873
0.080566406	13.376732
0.08300781	15.017973
0.08544922	16.505133
0.087890625	17.773674
0.09033203	18.765415
0.09277344	19.42632
0.095214844	19.706764
0.09765625	19.565619
0.10009766	18.977232
0.10253906	17.93854
0.10498047	16.473358
0.10742188	14.633078
0.10986328	12.496643
0.11230469	10.176702
0.11474609	7.8465533
0.1171875	5.824976
0.11962891	4.738615
0.12207031	5.181142
0.12451172	6.706382
0.12695312	8.574109
0.12939453	10.421594
0.13183594	12.097651
0.13427734	13.526295
0.13671875	14.657275
0.13916016	15.454859
0.14160156	15.906186
0.14404297	16.037954
0.14648438	15.929826
0.14892578	15.71217
0.15136719	15.53936
0.1538086	15.540297
0.15625	15.76562
0.1586914	16.162848
0.16113281	16.595823
0.16357422	16.895206
0.16601562	16.914797
0.16845703	16.576176
0.17089844	15.891983
0.17333984	14.963176
0.17578125	13.952353
0.17822266	13.042687
0.18066406	12.393468
0.18310547	12.099652
0.18554688	12.161969
0.18798828	12.478401
0.19042969	12.860651
0.1928711	13.066483
0.1953125	12.840334
0.1977539	11.963059
0.20019531	10.309261
0.20263672	7.9092956
0.20507812	5.0720253
0.20751953	3.143215
0.20996094	4.801023
0.21240234	7.9293303
0.21484375	10.785798
0.21728516	12.803493
0.21972656	13.682673
0.22216797	13.301243
0.22460938	11.73374
0.22705078	9.283782
0.22949219	6.577274
0.2319336	4.8978024
0.234375	5.5914626
0.2368164	7.4527698
0.23925781	8.9657955
0.24169922	9.538607
0.24414062	9.043058
0.24658203	7.6924887
0.24902344	6.1291184
0.25146484	5.54391
0.25390625	6.635567
0.25634766	8.476818
0.25878906	10.056467
0.26123047	10.865297
0.26367188	10.70643
0.26611328	9.596016
0.2685547	7.719584
0.2709961	5.403626
0.2734375	3.2319036
0.2758789	2.763693
0.2783203	4.415398
0.28076172	6.2727275
0.28320312	7.508245
0.28564453	7.751082
0.28808594	6.8721194
0.29052734	5.136779
0.29296875	4.014786
0.29541016	6.13306
0.29785156	10.257461
0.30029297	14.739867
0.30273438	18.716427
0.30517578	21.504519
0.3076172	22.575537
0.3100586	21.651993
0.3125	18.773258
0.3149414	14.286636
0.3173828	8.793959
0.31982422	3.2615876
0.32226562	3.2464461
0.32470703	7.0228596
0.32714844	9.019763
0.32958984	8.61173
0.33203125	5.9917083
0.33447266	3.924987
0.33691406	8.311829
0.33935547	14.779642
0.34179688	20.757023
0.34423828	25.209774
0.3466797	27.561283
0.3491211	27.601086
0.3515625	25.465763
0.3540039	21.610685
0.3564453	16.720377
0.35888672	11.520926
0.36132812	6.53605
0.36376953	2.1022127
0.36621094	3.4251204
0.36865234	8.312577
0.37109375	13.628165
0.37353516	18.983976
0.37597656	23.891508
0.37841797	27.870943
0.38085938	30.617281
0.38330078	32.130314
0.3857422	32.740868
0.3881836	32.96552
0.390625	33.21734
0.3930664	33.56146
0.3955078	33.71027
0.39794922	33.21339
0.40039062	31.664593
0.40283203	28.862144
0.40527344	24.948565
0.40771484	20.526136
0.41015625	16.695517
0.41259766	14.775483
0.41503906	15.229457
0.41748047	17.084274
0.41992188	19.133291
0.42236328	20.634117
0.4248047	21.185335
0.4272461	20.628717
0.4296875	19.04127
0.4321289	16.654242
0.4345703	13.684377
0.43701172	10.249441
0.43945312	6.529804
0.44189453	3.3267744
0.44433594	3.496567
0.44677734	5.867687
0.44921875	7.845211
0.45166016	9.291163
0.45410156	10.665676
0.45654297	12.444502
0.45898438	14.803406
0.46142578	17.533457
0.4638672	20.14948
0.4663086	22.121088
0.46875	23.107166
0.4711914	23.05041
0.4736328	22.10498
0.47607422	20.521605
0.47851562	18.617456
0.48095703	16.778358
0.48339844	15.327247
0.48583984	14.302238
0.48828125	13.471531
0.49072266	12.61764
0.49316406	11.679262
0.49560547	10.608361
0.49804688	9.277256
0.5004883	7.8455267
0.5029297	7.7647457
0.5053711	11.138745
0.5078125	17.404686
0.5102539	24.96749
0.5126953	32.40569
0.5151367	38.403584
0.5175781	41.94267
0.52001953	42.58739
0.52246094	40.65999
0.52490234	37.242542
0.52734375	33.984566
0.52978516	32.49275
0.53222656	33.19479
0.53466797	34.893185
0.5371094	35.82162
0.5395508	34.743057
0.5419922	31.286253
0.5444336	25.833914
0.546875	19.251966
0.5493164	12.703837
0.5517578	8.100165
0.5541992	8.459069
0.5566406	12.15179
0.55908203	15.992462
0.56152344	18.982773
0.56396484	20.887468
0.56640625	21.721838
0.56884766	21.595058
0.57128906	20.661373
0.57373047	19.128342
0.5761719	17.230692
0.5786133	15.141448
0.5810547	12.93133
0.5834961	10.687173
0.5859375	8.773645
0.5883789	8.075631
0.5908203	9.332766
0.5932617	11.924075
0.5957031	14.768945
0.59814453	17.285969
0.60058594	19.417051
0.60302734	21.259184
0.60546875	22.582684
0.60791016	22.749754
0.61035156	21.14008
0.61279297	17.646156
0.6152344	12.976497
0.6176758	9.051571
0.6201172	8.887629
0.6225586	11.609832
0.625	13.884777
0.6274414	14.222814
0.6298828	12.284408
0.6323242	8.433539
0.6347656	3.5999994
0.63720703	1.7543893
0.63964844	5.4553175
0.64208984	8.376511
0.64453125	11.29967
0.64697266	15.24823
0.64941406	20.036333
0.65185547	24.538683
0.6542969	27.620396
0.6567383	28.654455
0.6591797	27.709742
0.6616211	25.574736
0.6640625	23.571108
0.6665039	22.87286
0.6689453	23.602606
0.6713867	25.156368
0.6738281	27.50916
0.67626953	31.389175
0.67871094	36.9785
0.68115234	43.166138
0.68359375	48.37724
0.68603516	51.63031
0.68847656	52.897377
0.69091797	52.794598
0.6933594	51.994602
0.6958008	50.85327
0.6982422	49.432568
0.7006836	47.66337
0.703125	45.46338
0.7055664	42.94341
0.7080078	40.677273
0.7104492	39.54698
0.7128906	39.903557
0.71533203	41.05434
0.71777344	42.017086
0.72021484	42.462124
0.72265625	42.630394
0.72509766	42.527
0.72753906	41.581642
0.72998047	39.28337
0.7324219	35.96611
0.7348633	32.81279
0.7373047	30.905682
0.7397461	30.20661
0.7421875	29.775105
0.7446289	28.696642
0.7470703	26.480358
0.7495117	23.086182
0.7519531	18.964521
0.75439453	14.956526
0.75683594	11.874458
0.75927734	9.964476
0.76171875	8.873876
0.76416016	8.273755
0.76660156	8.186201
0.76904297	8.512723
0.7714844	8.617208
0.7739258	7.7589564
0.7763672	5.7058697
0.7788086	3.267959
0.78125	3.895034
0.7836914	7.1791472
0.7861328	10.326304
0.7885742	12.576797
0.7910156	13.834474
0.79345703	14.392002
0.79589844	14.507994
0.79833984	14.029821
0.80078125	12.593846
0.80322266	10.09872
0.80566406	6.8243256
0.80810547	3.2792356
0.8105469	2.280709
0.8129883	5.7998233
0.8154297	9.367394
0.8178711	12.095526
0.8203125	13.808173
0.8227539	14.770178
0.8251953	15.340236
0.8276367	15.657
0.8300781	15.572556
0.83251953	14.655449
0.83496094	12.366687
0.83740234	8.5215025
0.83984375	3.6838005
0.84228516	2.6497107
0.84472656	7.524296
0.84716797	12.531601
0.8496094	17.58932
0.8520508	22.545845
0.8544922	27.052937
0.8569336	30.806427
0.859375	33.51087
0.8618164	34.804058
0.8642578	34.472366
0.8666992	32.781155
0.8691406	30.53372
0.87158203	28.700115
0.87402344	27.77136
0.87646484	27.3681
0.87890625	26.571733
0.88134766	24.631268
0.88378906	21.420753
0.88623047	17.448805
0.8886719	13.530969
0.8911133	10.514705
0.8935547	9.518278
0.8959961	11.410811
0.8984375	15.13821
0.9008789	18.90203
0.9033203	21.37236
0.9057617	21.880495
0.9082031	20.477932
0.91064453	17.84188
0.91308594	15.013801
0.91552734	13.029408
0.91796875	12.378814
0.92041016	12.633941
0.92285156	12.974282
0.92529297	12.938185
0.9277344	12.603415
0.9301758	12.300809
0.9326172	12.143092
0.9350586	11.892633
0.9375	11.352527
0.9399414	10.740238
0.9423828	10.627638
0.9448242	11.409945
0.9472656	12.750629
0.94970703	13.710897
0.95214844	13.345619
0.95458984	11.273068
0.95703125	8.016335
0.95947266	4.957377
0.96191406	3.448355
0.96435547	2.7160454
0.9667969	2.904801
0.9692383	6.473384
0.9716797	11.778829
0.9741211	17.40815
0.9765625	22.345537
0.9790039	25.774506
0.9814453	27.260569
0.9838867	26.98631
0.9863281	25.810661
0.98876953	24.94786
0.99121094	25.13788
0.99365234	25.958406
0.99609375	26.394815
0.99853516	26.154335
1.0009766	26.355347
1.003418	28.559568
1.0058594	32.70089
1.0083008	37.186317
1.0107422	40.72552
1.0131836	43.06454
1.015625	44.512196
1.0180664	45.17147
1.0205078	44.676117
1.0229492	42.587643
1.0253906	38.91154
1.027832	34.255768
1.0302734	29.553955
1.0327148	25.551163
1.0351562	22.447878
1.0375977	20.068117
1.0400391	18.355762
1.0424805	17.63899
1.0449219	18.41885
1.0473633	20.841352
1.0498047	24.43475
1.0522461	28.365812
1.0546875	31.782734
1.0571289	34.027664
1.0595703	34.77313
1.0620117	34.09567
1.0644531	32.424236
1.0668945	30.302004
1.0693359	28.049736
1.0717773	25.603472
1.0742188	22.668901
1.0766602	18.964916
1.0791016	14.312619
1.081543	8.697805
1.0839844	3.4106462
1.0864258	7.3318987
1.0888672	14.734699
1.0913086	21.627981
1.09375	27.026884
1.0961914	30.483372
1.0986328	32.109554
1.1010742	32.47296
1.1035156	32.222427
1.105957	31.66716
1.1083984	30.71214
1.1108398	29.160004
1.1132812	26.948444
1.1157227	24.126108
1.1181641	20.800915
1.1206055	17.262287
1.1230469	14.135265
1.1254883	12.22391
1.1279297	11.82795
1.1303711	12.33913
1.1328125	12.928086
1.1352539	13.108177
1.1376953	12.72489
1.1401367	11.838144
1.1425781	10.655325
1.1450195	9.540321
1.1474609	8.994036
1.1499023	9.28406
1.1523438	10.082638
1.1547852	10.964769
1.1572266	12.060179
1.159668	13.89166
1.1621094	16.5328
1.1645508	19.318058
1.1669922	21.428125
1.1694336	22.433659
1.171875	22.42594
1.1743164	21.822
1.1767578	21.017155
1.1791992	20.114304
1.1816406	18.89408
1.184082	17.01487
1.1865234	14.29415
1.1889648	10.897476
1.1914062	7.322807
1.1938477	4.2070026
1.1962891	2.1517968
1.1987305	1.5388889
1.2011719	1.4426754
1.2036133	0.8045804
1.2060547	0.87845325
1.2084961	3.2343903
1.2109375	6.243718
1.2133789	9.468942
1.2158203	12.457108
1.2182617	14.878486
1.2207031	16.707914
1.2231445	18.267319
1.2255859	19.927916
1.2280273	21.639166
1.2304688	22.872679
1.2329102	23.075401
1.2353516	22.136883
1.237793	20.56144
1.2402344	19.243742
1.2426758	18.777643
1.2451172	18.853868
1.2475586	18.682926
1.25	17.893953
1.2524414	16.91761
1.2548828	16.752014
1.2573242	18.206823
1.2597656	21.209042
1.262207	25.043644
1.2646484	28.959661
1.2670898	32.440372
1.2695312	35.207905
1.2719727	37.113647
1.2744141	38.067493
1.2768555	38.08496
1.2792969	37.36242
1.2817383	36.253483
1.2841797	35.153954
1.2866211	34.389538
1.2890625	34.14797
1.2915039	34.452682
1.2939453	35.197094
1.2963867	36.25133
1.2988281	37.549286
1.3012695	39.025288
1.3037109	40.439655
1.3061523	41.34074
1.3085938	41.30337
1.3110352	40.219727
1.3134766	38.31845
1.315918	35.8717
1.3183594	32.911427
1.3208008	29.291458
1.3232422	25.030098
1.3256836	20.613708
1.328125	17.077723
1.3305664	15.639974
1.3330078	16.627197
1.3354492	19.178062
1.3378906	22.365652
1.340332	25.588835
1.3427734	28.334124
1.3452148	30.12477
1.3476562	30.66685
1.3500977	29.985653
1.3525391	28.459408
1.3549805	26.726227
1.3574219	25.423456
1.3598633	24.86702
1.3623047	25.028711
1.3647461	25.809591
1.3671875	27.07423
1.3696289	28.360573
1.3720703	28.8455
1.3745117	27.74116
1.3769531	24.705
1.3793945	19.953588
1.3818359	14.099003
1.3842773	7.9361973
1.3867188	3.4858155
1.3891602	6.8259177
1.3916016	12.388056
1.394043	17.456915
1.3964844	21.444088
1.3989258	24.12048
1.4013672	25.503407
1.4038086	25.657516
1.40625	24.582165
1.4086914	22.426983
1.4111328	19.970282
1.4135742	18.973005
1.4160156	21.264137
1.418457	26.739481
1.4208984	33.983707
1.4233398	41.768368
1.4257812	49.14008
1.4282227	55.209362
1.4306641	59.233112
1.4331055	60.888
1.4355469	60.4132
1.4379883	58.40731
1.4404297	55.417686
1.4428711	51.707146
1.4453125	47.360798
1.4477539	42.461575
1.4501953	37.067352
1.4526367	31.089514
1.4550781	24.318954
1.4575195	16.613588
1.4599609	8.074371
1.4624023	1.0126411
1.4648438	9.834655
1.4672852	18.054201
1.4697266	25.202915
1.472168	31.062803
1.4746094	35.51663
1.4770508	38.471195
1.4794922	39.868286
1.4819336	39.72702
1.484375	38.146942
1.4868164	35.290092
1.4892578	31.387352
1.4916992	26.751995
1.4941406	21.77414
1.496582	16.954964
1.4990234	13.083471
1.5014648	11.347996
1.5039062	12.237337
1.5063477	14.494659
1.5087891	16.747969
1.5112305	18.405981
1.5136719	19.432009
1.5161133	20.055803
1.5185547	20.540144
1.5209961	21.051384
1.5234375	21.718523
1.5258789	22.80458
1.5283203	24.70206
1.5307617	27.600073
1.5332031	31.186728
1.5356445	34.795704
1.5380859	37.782864
1.5405273	39.74839
1.5429688	40.53358
1.5454102	40.116974
1.5478516	38.534283
1.550293	35.86048
1.5527344	32.239452
1.5551758	27.958986
1.5576172	23.507488
1.5600586	19.461313
1.5625	16.133535
1.5649414	13.390093
1.5673828	11.212656
1.5698242	10.463408
1.5722656	11.890718
1.574707	14.495403
1.5771484	17.086802
1.5795898	19.626663
1.5820312	22.834602
1.5844727	27.045412
1.5869141	31.680553
1.5893555	35.798134
1.5917969	38.663593
1.5942383	39.80505
1.5966797	38.861134
1.5991211	35.616062
1.6015625	30.234118
1.6040039	23.391794
1.6064453	16.094486
1.6088867	9.367696
1.6113281	4.8835945
1.6137695	6.4309196
1.6162109	10.50945
1.6186523	13.890756
1.6210938	15.86278
1.6235352	16.552956
1.6259766	16.675673
1.628418	16.980785
1.6308594	17.65384
1.6333008	18.39784
1.6357422	18.88936
1.6381836	18.889942
1.640625	18.166903
1.6430664	16.596586
1.6455078	14.353615
1.6479492	11.919605
1.6503906	9.885937
1.652832	8.682303
1.6552734	8.293942
1.6577148	8.203476
1.6601562	7.8322597
1.6625977	7.098804
1.6650391	6.749348
1.6674805	7.862144
1.6699219	10.398829
1.6723633	13.554473
1.6748047	16.64981
1.6772461	19.180065
1.6796875	20.962152
1.6821289	22.460434
1.6845703	24.69073
1.6870117	28.316711
1.6894531	32.994965
1.6918945	37.901756
1.6943359	42.402763
1.6967773	46.110832
1.6992188	48.71234
1.7016602	49.981667
1.7041016	49.909927
1.706543	48.668312
1.7089844	46.387283
1.7114258	43.006866
1.7138672	38.337265
1.7163086	32.21502
1.71875	24.641932
1.7211914	15.988106
1.7236328	7.8348274
1.7260742	7.8578854
1.7285156	14.944846
1.730957	21.532146
1.7333984	26.670341
1.7358398	30.692963
1.7382812	33.973984
1.7407227	36.479828
1.7431641	38.0428
1.7456055	38.826523
1.7480469	39.289032
1.7504883	39.707745
1.7529297	39.930588
1.7553711	39.6281
1.7578125	38.60102
1.7602539	36.813873
1.7626953	34.30161
1.7651367	31.135506
1.7675781	27.432512
1.7700195	23.348116
1.7724609	19.088411
1.7749023	14.985288
1.7773438	11.584206
1.7797852	9.582574
1.7822266	9.320994
1.784668	10.433364
1.7871094	12.618569
1.7895508	15.946206
1.7919922	20.294092
1.7944336	25.111713
1.796875	29.702715
1.7993164	33.586
1.8017578	36.650963
1.8041992	39.00815
1.8066406	40.67801
1.809082	41.47491
1.8115234	41.271553
1.8139648	40.375786
1.8164062	39.54354
1.8188477	39.40692
1.8212891	39.781223
1.8237305	39.734383
1.8261719	38.381508
1.8286133	35.54604
1.8310547	31.818861
1.8334961	28.014725
1.8359375	24.39801
1.8383789	20.54537
1.8408203	16.316015
1.8432617	13.298374
1.8457031	14.459358
1.8481445	19.075882
1.8505859	24.161762
1.8530273	28.369156
1.8554688	31.614462
1.8579102	34.155495
1.8603516	35.96736
1.862793	36.64206
1.8652344	35.69214
1.8676758	32.885796
1.8701172	28.397154
1.8725586	22.74678
1.875	16.57259
1.8774414	10.361605
1.8798828	4.4358597
1.8823242	2.6874
1.8847656	7.9005566
1.887207	13.102391
1.8896484	17.873337
1.8920898	22.214407
1.8945312	25.974169
1.8969727	28.68673
1.8994141	29.821785
1.9018555	29.204723
1.9042969	27.21036
1.9067383	24.546894
1.9091797	21.765036
1.9116211	18.89843
1.9140625	15.583273
1.9165039	11.491294
1.9189453	6.646612
1.9213867	1.7351681
1.9238281	4.3061895
1.9262695	9.250125
1.9287109	14.114917
1.9311523	18.995817
1.9335938	23.619022
1.9360352	27.31255
1.9384766	29.481926
1.940918	30.051895
1.9433594	29.499205
1.9458008	28.477262
1.9482422	27.401476
1.9506836	26.401234
1.953125	25.579575
1.9555664	25.180414
1.9580078	25.480946
1.9604492	26.514214
1.9628906	27.922953
1.965332	29.22303
1.9677734	30.281475
1.9702148	31.458172
1.9726562	33.116352
1.9750977	35.021915
1.9775391	36.455887
1.9799805	36.827297
1.9824219	36.00386
1.9848633	34.171867
1.9873047	31.556572
1.9897461	28.310627
1.9921875	24.59004
1.9946289	20.693958
1.9970703	17.268522
1.9995117	15.476876
2.0019531	16.308989
2.0043945	19.244959
2.006836	22.976671
2.0092773	26.646639
2.0117188	29.846493
2.0141602	32.26422
2.0166016	33.53722
2.019043	33.329304
2.0214844	31.458406
2.0239258	27.97968
2.0263672	23.236223
2.0288086	17.879782
2.03125	12.815163
2.0336914	9.107168
2.0361328	7.760736
2.0385742	8.611617
2.0410156	10.215468
2.043457	11.370737
2.0458984	11.391459
2.0483398	10.053348
2.0507812	7.6720004
2.0532227	5.510239
2.055664	6.281904
2.0581055	9.811911
2.0605469	13.928049
2.0629883	17.670778
2.0654297	20.63456
2.067871	22.677176
2.0703125	23.845316
2.072754	24.312279
2.0751953	24.26302
2.0776367	23.748531
2.0800781	22.653757
2.0825195	20.88435
2.084961	18.599276
2.0874023	16.203539
2.0898438	14.035779
2.0922852	12.101318
2.0947266	10.247322
2.097168	8.511365
2.0996094	7.096218
2.1020508	6.109412
2.1044922	5.6928067
2.1069336	6.1991935
2.109375	7.5161104
2.1118164	9.004367
2.1142578	10.360255
2.1166992	11.944912
2.1191406	14.285511
2.121582	17.273844
2.1240234	20.16352
2.1264648	22.208677
2.1289062	23.151243
2.1313477	23.30222
2.133789	23.15895
2.1362305	22.801197
2.1386719	21.750834
2.1411133	19.516768
2.1435547	16.213758
2.145996	12.826666
2.1484375	11.00128
2.150879	11.578645
2.1533203	13.410513
2.1557617	15.211535
2.1582031	16.510078
2.1606445	17.331364
2.163086	17.941568
2.1655273	18.678701
2.1679688	19.743328
2.1704102	21.073233
2.1728516	22.460386
2.175293	23.786364
2.1777344	25.125366
2.1801758	26.590502
2.1826172	28.066599
2.1850586	29.159046
2.1875	29.464304
2.1899414	28.880365
2.1923828	27.67419
2.1948242	26.267817
2.1972656	24.950174
2.199707	23.78521
2.2021484	22.76013
2.2045898	21.93601
2.2070312	21.428997
2.2094727	21.286932
2.211914	21.436293
2.2143555	21.764948
2.2167969	22.219513
2.2192383	22.762259
2.2216797	23.221182
2.224121	23.251287
2.2265625	22.52033
2.229004	20.949894
2.2314453	18.786905
2.2338867	16.43407
2.2363281	14.182561
2.2387695	12.115387
2.241211	10.321571
2.2436523	9.186533
2.2460938	9.275574
2.2485352	10.645533
2.2509766	12.732032
2.253418	14.956222
2.2558594	16.969944
2.2583008	18.613647
2.2607422	19.846058
2.2631836	20.678293
2.265625	21.1233
2.2680664	21.179539
2.2705078	20.835142
2.2729492	20.057083
2.2753906	18.77702
2.277832	16.941422
2.2802734	14.673905
2.2827148	12.500243
2.2851562	11.405764
2.2875977	12.084944
2.290039	13.971766
2.2924805	15.98025
2.2949219	17.42594
2.2973633	18.07871
2.2998047	17.966356
2.302246	17.18593
2.3046875	15.790018
2.307129	13.790607
2.3095703	11.249075
2.3120117	8.363625
2.3144531	5.4914846
2.3168945	3.1976223
2.319336	2.6315203
2.3217773	4.0024176
2.3242188	6.021419
2.3266602	8.211854
2.3291016	10.259007
2.331543	11.828067
2.3339844	12.709843
2.3364258	12.957525
2.3388672	12.901728
2.3413086	12.964971
2.34375	13.327318
2.3461914	13.793552
2.3486328	14.058908
2.3510742	14.042979
2.3535156	13.957605
2.355957	14.059276
2.3583984	14.312194
2.3608398	14.362507
2.3632812	13.847507
2.3657227	12.67953
2.368164	11.113042
2.3706055	9.607403
2.3730469	8.519885
2.3754883	7.8135695
2.3779297	7.154503
2.380371	6.286262
2.3828125	5.2232957
2.385254	4.247097
2.3876953	3.8488812
2.3901367	4.345871
2.3925781	5.432144
2.3950195	6.6171875
2.397461	7.56133
2.3999023	8.065369
2.4023438	8.039659
2.4047852	7.4806285
2.4072266	6.444028
2.409668	5.028706
2.4121094	3.3812406
2.4145508	1.7688504
2.4169922	1.2773485
2.4194336	2.538626
2.421875	4.0575523
2.4243164	5.533908
2.4267578	6.846323
2.4291992	7.8076544
2.4316406	8.245595
2.434082	8.162986
2.4365234	7.8459044
2.4389648	7.773592
2.4414062	8.249185
2.4438477	9.14409
2.446289	10.159342
2.4487305	11.113473
2.4511719	11.91936
