
X-Axis: Frequency (hz)
Y-Axis: Fourier Amplitude (cm/s)
Number of Data Sets: 4


DATASET #1

Name: FAS H1 (cm/s)
Num Points: 2044
Info: 

X, Y Data:
0.009765625	0.1319626
0.012207031	0.20362507
0.014648438	0.29565886
0.017089844	0.4070992
0.01953125	0.5340251
0.021972656	0.66909087
0.024414062	0.8017389
0.026855469	0.919425
0.029296875	1.0105796
0.03173828	1.0696881
0.034179688	1.1048114
0.036621094	1.1458143
0.0390625	1.2440798
0.041503906	1.4480416
0.043945312	1.7682091
0.04638672	2.1736596
0.048828125	2.613257
0.05126953	3.0322487
0.053710938	3.3821337
0.056152344	3.6303117
0.05859375	3.7728267
0.061035156	3.8511133
0.06347656	3.9685032
0.06591797	4.2835464
0.068359375	4.9456286
0.07080078	6.009554
0.07324219	7.426774
0.075683594	9.097361
0.078125	10.908908
0.080566406	12.751454
0.08300781	14.523138
0.08544922	16.133305
0.087890625	17.503586
0.09033203	18.567144
0.09277344	19.267254
0.095214844	19.557356
0.09765625	19.403456
0.10009766	18.78795
0.10253906	17.712563
0.10498047	16.198364
0.10742188	14.283275
0.10986328	12.019625
0.11230469	9.475726
0.11474609	6.7482677
0.1171875	4.0213275
0.11962891	2.071524
0.12207031	3.1750407
0.12451172	5.5798144
0.12695312	7.928624
0.12939453	9.967855
0.13183594	11.594635
0.13427734	12.752352
0.13671875	13.415539
0.13916016	13.590384
0.14160156	13.320384
0.14404297	12.691951
0.14648438	11.836157
0.14892578	10.923285
0.15136719	10.145486
0.1538086	9.678258
0.15625	9.619962
0.1586914	9.946005
0.16113281	10.527184
0.16357422	11.19663
0.16601562	11.808485
0.16845703	12.266816
0.17089844	12.533403
0.17333984	12.622861
0.17578125	12.587559
0.17822266	12.495263
0.18066406	12.404819
0.18310547	12.346356
0.18554688	12.309746
0.18798828	12.24132
0.19042969	12.049588
0.1928711	11.622514
0.1953125	10.856014
0.1977539	9.686812
0.20019531	8.120228
0.20263672	6.252112
0.20507812	4.317836
0.20751953	2.9203253
0.20996094	3.1432128
0.21240234	4.53951
0.21484375	5.994372
0.21728516	7.0590053
0.21972656	7.5550137
0.22216797	7.433265
0.22460938	6.7607384
0.22705078	5.7405386
0.22949219	4.7644362
0.2319336	4.410805
0.234375	4.968944
0.2368164	6.014479
0.23925781	6.9837193
0.24169922	7.5273185
0.24414062	7.5023465
0.24658203	6.981654
0.24902344	6.3418555
0.25146484	6.332223
0.25390625	7.5917463
0.25634766	9.927159
0.25878906	12.747178
0.26123047	15.556388
0.26367188	17.989752
0.26611328	19.791203
0.2685547	20.826077
0.2709961	21.095976
0.2734375	20.727852
0.2758789	19.93214
0.2783203	18.948559
0.28076172	18.00391
0.28320312	17.284946
0.28564453	16.907404
0.28808594	16.884258
0.29052734	17.135801
0.29296875	17.549753
0.29541016	18.025938
0.29785156	18.453447
0.30029297	18.659468
0.30273438	18.413336
0.30517578	17.511278
0.3076172	15.900858
0.3100586	13.820714
0.3125	11.996324
0.3149414	11.712263
0.3173828	13.798321
0.31982422	17.53002
0.32226562	21.651148
0.32470703	25.192146
0.32714844	27.530092
0.32958984	28.38678
0.33203125	27.844318
0.33447266	26.330698
0.33691406	24.567734
0.33935547	23.449074
0.34179688	23.711334
0.34423828	25.434874
0.3466797	27.929396
0.3491211	30.178452
0.3515625	31.302597
0.3540039	30.79431
0.3564453	28.591019
0.35888672	25.038124
0.36132812	20.778572
0.36376953	16.631252
0.36621094	13.485632
0.36865234	12.005882
0.37109375	11.990993
0.37353516	12.425557
0.37597656	12.394161
0.37841797	11.530256
0.38085938	10.017386
0.38330078	8.489627
0.3857422	7.7034216
0.3881836	7.7901525
0.390625	8.116814
0.3930664	8.255209
0.3955078	8.751471
0.39794922	11.023213
0.40039062	15.721044
0.40283203	22.146097
0.40527344	29.227821
0.40771484	35.957916
0.41015625	41.52777
0.41259766	45.42747
0.41503906	47.45987
0.41748047	47.650623
0.41992188	46.122112
0.42236328	43.034344
0.4248047	38.6319
0.4272461	33.331703
0.4296875	27.750889
0.4321289	22.643026
0.4345703	18.802591
0.43701172	16.939104
0.43945312	17.304892
0.44189453	19.330057
0.44433594	21.997614
0.44677734	24.434526
0.44921875	26.142038
0.45166016	26.986897
0.45410156	27.050558
0.45654297	26.416761
0.45898438	25.0565
0.46142578	22.90577
0.4638672	20.035004
0.4663086	16.711195
0.46875	13.247981
0.4711914	9.738469
0.4736328	5.950702
0.47607422	1.5640224
0.47851562	3.5155895
0.48095703	8.98032
0.48339844	14.325054
0.48583984	19.026129
0.48828125	22.732307
0.49072266	25.319098
0.49316406	26.820997
0.49560547	27.318462
0.49804688	26.893309
0.5004883	25.70678
0.5029297	24.12604
0.5053711	22.717318
0.5078125	21.937536
0.5102539	21.681608
0.5126953	21.233913
0.5151367	19.712593
0.5175781	16.483122
0.52001953	11.309867
0.52246094	4.492395
0.52490234	4.9401865
0.52734375	14.006141
0.52978516	23.196575
0.53222656	31.370878
0.53466797	37.617588
0.5371094	41.269463
0.5395508	42.009018
0.5419922	39.91165
0.5444336	35.420837
0.546875	29.280394
0.5493164	22.450403
0.5517578	16.013794
0.5541992	11.035063
0.5566406	8.152721
0.55908203	6.8707185
0.56152344	6.223235
0.56396484	6.5301976
0.56640625	8.811357
0.56884766	12.796825
0.57128906	17.629305
0.57373047	22.613113
0.5761719	27.1578
0.5786133	30.753035
0.5810547	33.053898
0.5834961	33.958004
0.5859375	33.57264
0.5883789	32.07463
0.5908203	29.58412
0.5932617	26.180046
0.5957031	22.052776
0.59814453	17.679886
0.60058594	13.969784
0.60302734	12.249296
0.60546875	13.233159
0.60791016	15.868259
0.61035156	18.598705
0.61279297	20.317482
0.6152344	20.392584
0.6176758	18.757309
0.6201172	16.118746
0.6225586	14.079637
0.625	14.266135
0.6274414	16.22105
0.6298828	18.009123
0.6323242	18.180569
0.6347656	16.085318
0.63720703	11.71148
0.63964844	6.062358
0.64208984	6.350813
0.64453125	14.115509
0.64697266	22.286457
0.64941406	29.02662
0.65185547	33.356403
0.6542969	34.858612
0.6567383	33.793026
0.6591797	31.143133
0.6616211	28.45722
0.6640625	27.208982
0.6665039	27.715893
0.6689453	28.903425
0.6713867	29.358004
0.6738281	28.185335
0.67626953	25.236294
0.67871094	21.188267
0.68115234	17.74776
0.68359375	17.256222
0.68603516	20.03802
0.68847656	23.823864
0.69091797	26.624378
0.6933594	27.594995
0.6958008	26.783314
0.6982422	24.808897
0.7006836	22.443527
0.703125	20.115074
0.7055664	17.638138
0.7080078	14.438754
0.7104492	10.019073
0.7128906	4.3095737
0.71533203	3.168087
0.71777344	10.360313
0.72021484	17.27715
0.72265625	22.793789
0.72509766	26.137772
0.72753906	26.990719
0.72998047	25.593264
0.7324219	22.723099
0.7348633	19.625053
0.7373047	17.874739
0.7397461	18.590868
0.7421875	21.254585
0.7446289	24.30068
0.7470703	26.392803
0.7495117	26.800802
0.7519531	25.352638
0.75439453	22.273062
0.75683594	18.004587
0.75927734	13.140579
0.76171875	8.589465
0.76416016	6.0204005
0.76660156	6.539287
0.76904297	7.9292088
0.7714844	8.660253
0.7739258	8.812714
0.7763672	9.100664
0.7788086	10.274547
0.78125	12.696762
0.7836914	16.20354
0.7861328	20.269085
0.7885742	24.287895
0.7910156	27.777264
0.79345703	30.385006
0.79589844	31.816923
0.79833984	31.947594
0.80078125	31.13585
0.80322266	30.300777
0.80566406	30.220781
0.80810547	30.577917
0.8105469	30.268572
0.8129883	28.755453
0.8154297	26.893621
0.8178711	26.37266
0.8203125	27.79224
0.8227539	29.79845
0.8251953	30.570578
0.8276367	28.997673
0.8300781	24.819448
0.83251953	18.650927
0.83496094	12.612686
0.83740234	11.600225
0.83984375	16.344692
0.84228516	21.743301
0.84472656	25.714718
0.84716797	28.096216
0.8496094	29.260134
0.8520508	29.587969
0.8544922	29.485676
0.8569336	29.467848
0.859375	29.830511
0.8618164	30.29416
0.8642578	30.313297
0.8666992	29.71309
0.8691406	28.868092
0.87158203	28.33244
0.87402344	28.43483
0.87646484	29.174337
0.87890625	30.182798
0.88134766	30.725168
0.88378906	30.146637
0.88623047	28.67946
0.8886719	27.81696
0.8911133	29.11181
0.8935547	32.14129
0.8959961	35.082813
0.8984375	36.847244
0.9008789	37.803856
0.9033203	39.0532
0.9057617	41.13574
0.9082031	43.497665
0.91064453	45.108784
0.91308594	45.151535
0.91552734	43.1948
0.91796875	39.153675
0.92041016	33.31208
0.92285156	26.35629
0.92529297	19.261307
0.9277344	13.009279
0.9301758	8.289714
0.9326172	5.388472
0.9350586	4.32921
0.9375	4.9410458
0.9399414	6.8625855
0.9423828	9.697462
0.9448242	12.912928
0.9472656	15.871761
0.94970703	18.083038
0.95214844	19.437777
0.95458984	20.241127
0.95703125	20.99119
0.95947266	22.063534
0.96191406	23.56009
0.96435547	25.35277
0.9667969	27.18601
0.9692383	28.837626
0.9716797	30.340904
0.9741211	32.03097
0.9765625	34.178772
0.9790039	36.49286
0.9814453	38.115635
0.9838867	38.139244
0.9863281	36.10534
0.98876953	32.17074
0.99121094	26.964903
0.99365234	21.308676
0.99609375	15.970149
0.99853516	11.556289
1.0009766	8.514983
1.003418	7.1461124
1.0058594	7.5365367
1.0083008	9.477015
1.0107422	12.508041
1.0131836	16.016752
1.015625	19.328611
1.0180664	21.803795
1.0205078	22.95462
1.0229492	22.626411
1.0253906	21.242512
1.027832	19.942303
1.0302734	20.08676
1.0327148	21.977211
1.0351562	24.65217
1.0375977	27.17315
1.0400391	29.304766
1.0424805	31.236189
1.0449219	33.03923
1.0473633	34.451057
1.0498047	35.089005
1.0522461	34.727688
1.0546875	33.35956
1.0571289	31.100035
1.0595703	28.137108
1.0620117	24.832182
1.0644531	21.90462
1.0668945	20.437943
1.0693359	21.259138
1.0717773	24.110256
1.0742188	28.01321
1.0766602	32.10558
1.0791016	35.824894
1.081543	38.759502
1.0839844	40.560963
1.0864258	41.00686
1.0888672	40.131317
1.0913086	38.299576
1.09375	36.194756
1.0961914	34.76571
1.0986328	35.053806
1.1010742	37.65611
1.1035156	42.1508
1.105957	47.30835
1.1083984	51.869133
1.1108398	55.119213
1.1132812	57.003418
1.1157227	57.819412
1.1181641	57.746635
1.1206055	56.618687
1.1230469	54.13759
1.1254883	50.269485
1.1279297	45.439064
1.1303711	40.39385
1.1328125	35.8737
1.1352539	32.321392
1.1376953	29.803568
1.1401367	28.121643
1.1425781	26.964895
1.1450195	26.032997
1.1474609	25.175894
1.1499023	24.570837
1.1523438	24.770363
1.1547852	26.288124
1.1572266	28.893616
1.159668	31.563768
1.1621094	33.21327
1.1645508	33.400436
1.1669922	32.582798
1.1694336	31.763279
1.171875	31.556732
1.1743164	31.502556
1.1767578	30.51337
1.1791992	27.829264
1.1816406	23.52457
1.184082	18.583717
1.1865234	14.933537
1.1889648	14.811157
1.1914062	18.110033
1.1938477	22.878956
1.1962891	27.896866
1.1987305	32.618465
1.2011719	36.64199
1.2036133	39.523952
1.2060547	40.832947
1.2084961	40.295456
1.2109375	37.920918
1.2133789	34.03606
1.2158203	29.212498
1.2182617	24.107803
1.2207031	19.273304
1.2231445	15.026096
1.2255859	11.510089
1.2280273	8.965432
1.2304688	7.8654857
1.2329102	8.25091
1.2353516	9.278152
1.237793	10.146667
1.2402344	10.580585
1.2426758	10.687835
1.2451172	10.760019
1.2475586	11.120183
1.25	11.970617
1.2524414	13.220782
1.2548828	14.456179
1.2573242	15.12834
1.2597656	14.851665
1.262207	13.730057
1.2646484	12.688154
1.2670898	13.273963
1.2695312	15.968073
1.2719727	19.533335
1.2744141	22.598763
1.2768555	24.448536
1.2792969	25.034914
1.2817383	24.796993
1.2841797	24.345682
1.2866211	24.096718
1.2890625	24.079092
1.2915039	24.053385
1.2939453	23.763906
1.2963867	23.09941
1.2988281	22.140858
1.3012695	21.162525
1.3037109	20.568596
1.3061523	20.673424
1.3085938	21.399057
1.3110352	22.241177
1.3134766	22.602095
1.315918	22.16182
1.3183594	21.031717
1.3208008	19.624443
1.3232422	18.285955
1.3256836	16.963333
1.328125	15.28333
1.3305664	12.970132
1.3330078	10.210896
1.3354492	7.874618
1.3378906	7.3245068
1.340332	8.606524
1.3427734	10.266728
1.3452148	11.454944
1.3476562	12.190118
1.3500977	12.913851
1.3525391	13.907019
1.3549805	15.013517
1.3574219	16.078041
1.3598633	17.495031
1.3623047	20.00002
1.3647461	23.749393
1.3671875	28.02931
1.3696289	31.911186
1.3720703	34.805637
1.3745117	36.518795
1.3769531	37.009075
1.3793945	36.15952
1.3818359	33.788197
1.3842773	29.855536
1.3867188	24.659704
1.3891602	18.891594
1.3916016	13.588542
1.394043	10.068063
1.3964844	9.335268
1.3989258	10.747531
1.4013672	13.018196
1.4038086	15.342067
1.40625	16.93585
1.4086914	17.010689
1.4111328	15.34444
1.4135742	13.217181
1.4160156	13.980177
1.418457	19.103638
1.4208984	26.225735
1.4233398	33.512997
1.4257812	40.367264
1.4282227	46.64999
1.4306641	52.076572
1.4331055	56.08151
1.4355469	58.10287
1.4379883	57.928566
1.4404297	55.811104
1.4428711	52.331684
1.4453125	48.157513
1.4477539	43.851994
1.4501953	39.806885
1.4526367	36.279762
1.4550781	33.445965
1.4575195	31.33555
1.4599609	29.669895
1.4624023	27.862442
1.4648438	25.362446
1.4672852	22.098864
1.4697266	18.673964
1.472168	16.127733
1.4746094	15.289228
1.4770508	16.325466
1.4794922	19.084507
1.4819336	23.211044
1.484375	27.84169
1.4868164	31.77478
1.4892578	33.965446
1.4916992	33.895954
1.4941406	31.713144
1.496582	28.181501
1.4990234	24.521011
1.5014648	22.05207
1.5039062	21.4435
1.5063477	22.139143
1.5087891	22.982359
1.5112305	23.158838
1.5136719	22.469301
1.5161133	21.162909
1.5185547	19.613531
1.5209961	18.027817
1.5234375	16.438839
1.5258789	15.058416
1.5283203	14.599701
1.5307617	15.802896
1.5332031	18.392586
1.5356445	21.28902
1.5380859	23.593916
1.5405273	25.027603
1.5429688	25.885231
1.5454102	26.658176
1.5478516	27.50728
1.550293	28.07475
1.5527344	27.85441
1.5551758	26.70036
1.5576172	25.0098
1.5600586	23.421288
1.5625	22.24421
1.5649414	21.266962
1.5673828	20.261927
1.5698242	19.487865
1.5722656	19.411705
1.574707	19.926529
1.5771484	20.291338
1.5795898	19.930666
1.5820312	18.993319
1.5844727	18.153734
1.5869141	17.819853
1.5893555	17.62058
1.5917969	16.942627
1.5942383	15.794808
1.5966797	15.123468
1.5991211	16.116589
1.6015625	18.773722
1.6040039	21.985191
1.6064453	24.726114
1.6088867	26.520199
1.6113281	27.410362
1.6137695	27.80255
1.6162109	28.193546
1.6186523	28.825863
1.6210938	29.503683
1.6235352	29.740856
1.6259766	29.064222
1.628418	27.211548
1.6308594	24.184574
1.6333008	20.302372
1.6357422	16.462402
1.6381836	14.577188
1.640625	16.443407
1.6430664	21.050154
1.6455078	26.32361
1.6479492	31.028696
1.6503906	34.56004
1.652832	36.593903
1.6552734	37.01769
1.6577148	36.077858
1.6601562	34.497326
1.6625977	33.260036
1.6650391	33.04966
1.6674805	33.93572
1.6699219	35.69539
1.6723633	38.12355
1.6748047	40.825092
1.6772461	43.024807
1.6796875	43.865818
1.6821289	42.88901
1.6845703	40.21649
1.6870117	36.34123
1.6894531	31.760052
1.6918945	26.791405
1.6943359	21.694895
1.6967773	16.91318
1.6992188	13.240878
1.7016602	11.721896
1.7041016	12.624388
1.706543	14.752869
1.7089844	16.70972
1.7114258	17.631777
1.7138672	17.215652
1.7163086	15.6939
1.71875	13.729545
1.7211914	12.108058
1.7236328	11.252209
1.7260742	11.050846
1.7285156	11.337719
1.730957	12.143808
1.7333984	13.259173
1.7358398	13.998835
1.7382812	13.63736
1.7407227	11.979406
1.7431641	9.840656
1.7456055	9.433875
1.7480469	12.390306
1.7504883	17.517143
1.7529297	23.564257
1.7553711	29.91845
1.7578125	36.070225
1.7602539	41.487648
1.7626953	45.73359
1.7651367	48.55407
1.7675781	49.857162
1.7700195	49.671608
1.7724609	48.190025
1.7749023	45.843147
1.7773438	43.241104
1.7797852	40.892612
1.7822266	38.920517
1.784668	37.15163
1.7871094	35.57407
1.7895508	34.63114
1.7919922	34.88703
1.7944336	36.322845
1.796875	38.202557
1.7993164	39.698082
1.8017578	40.436832
1.8041992	40.498344
1.8066406	40.035057
1.809082	38.948162
1.8115234	36.937416
1.8139648	33.819286
1.8164062	29.741817
1.8188477	25.088665
1.8212891	20.180237
1.8237305	15.096939
1.8261719	9.91838
1.8286133	5.631458
1.8310547	5.85856
1.8334961	9.450312
1.8359375	12.74331
1.8383789	15.054891
1.8408203	16.64778
1.8432617	17.925024
1.8457031	19.048206
1.8481445	20.007679
1.8505859	20.845177
1.8530273	21.627419
1.8554688	22.339802
1.8579102	23.09706
1.8603516	24.43161
1.862793	26.897215
1.8652344	30.153215
1.8676758	32.92809
1.8701172	33.973427
1.8725586	32.918556
1.875	30.4936
1.8774414	27.95803
1.8798828	25.876364
1.8823242	23.48695
1.8847656	19.655249
1.887207	14.123748
1.8896484	7.982903
1.8920898	4.6935143
1.8945312	7.197631
1.8969727	10.36053
1.8994141	13.434729
1.9018555	17.509367
1.9042969	22.704645
1.9067383	28.042002
1.9091797	32.364555
1.9116211	34.840023
1.9140625	35.084038
1.9165039	33.18069
1.9189453	29.66114
1.9213867	25.369492
1.9238281	21.162386
1.9262695	17.584873
1.9287109	14.861545
1.9311523	13.268294
1.9335938	13.151405
1.9360352	14.245028
1.9384766	15.685197
1.940918	16.827242
1.9433594	17.54107
1.9458008	17.929155
1.9482422	17.951723
1.9506836	17.364588
1.953125	15.969818
1.9555664	13.86089
1.9580078	11.465103
1.9604492	9.410844
1.9628906	8.287844
1.965332	8.295003
1.9677734	9.092876
1.9702148	10.149379
1.9726562	11.059279
1.9750977	11.63561
1.9775391	11.895342
1.9799805	11.95857
1.9824219	11.946625
1.9848633	12.04297
1.9873047	12.686864
1.9897461	14.493401
1.9921875	17.71028
1.9946289	21.95677
1.9970703	26.569368
1.9995117	30.955828
2.0019531	34.747555
2.0043945	37.831776
2.006836	40.30057
2.0092773	42.323696
2.0117188	43.989838
2.0141602	45.206497
2.0166016	45.73972
2.019043	45.37744
2.0214844	44.1044
2.0239258	42.164536
2.0263672	39.94989
2.0288086	37.780308
2.03125	35.739758
2.0336914	33.70064
2.0361328	31.459795
2.0385742	28.81795
2.0410156	25.593306
2.043457	21.68763
2.0458984	17.254671
2.0483398	12.879577
2.0507812	9.649015
2.0532227	8.68803
2.055664	9.838377
2.0581055	12.220337
2.0605469	15.439459
2.0629883	19.003544
2.0654297	22.054934
2.067871	23.82082
2.0703125	24.152433
2.072754	23.79516
2.0751953	24.030275
2.0776367	25.494911
2.0800781	27.417435
2.0825195	28.432188
2.084961	27.670378
2.0874023	25.138308
2.0898438	21.552015
2.0922852	17.814644
2.0947266	14.318857
2.097168	10.660512
2.0996094	6.2215962
2.1020508	1.0838281
2.1044922	4.773687
2.1069336	9.62603
2.109375	13.064114
2.1118164	15.159918
2.1142578	17.003164
2.1166992	19.844435
2.1191406	23.662434
2.121582	27.308537
2.1240234	29.805136
2.1264648	31.126827
2.1289062	32.147438
2.1313477	33.771904
2.133789	35.898483
2.1362305	37.459793
2.1386719	37.39329
2.1411133	35.350437
2.1435547	31.738491
2.145996	27.29482
2.1484375	22.548656
2.150879	17.605322
2.1533203	12.451058
2.1557617	7.4723
2.1582031	4.0337434
2.1606445	4.0881915
2.163086	5.1386027
2.1655273	5.748499
2.1679688	7.32423
2.1704102	10.522625
2.1728516	14.132243
2.175293	16.949427
2.1777344	18.636744
2.1801758	19.920904
2.1826172	22.090242
2.1850586	25.647081
2.1875	29.73853
2.1899414	33.103104
2.1923828	34.996387
2.1948242	35.45737
2.1972656	35.103542
2.199707	34.628277
2.2021484	34.30446
2.2045898	33.909267
2.2070312	33.09673
2.2094727	31.779734
2.211914	30.201632
2.2143555	28.720644
2.2167969	27.51804
2.2192383	26.47513
2.2216797	25.305555
2.224121	23.782175
2.2265625	21.888443
2.229004	19.845253
2.2314453	18.01495
2.2338867	16.66645
2.2363281	15.724861
2.2387695	14.794209
2.241211	13.477245
2.2436523	11.662288
2.2460938	9.590902
2.2485352	7.741959
2.2509766	6.5412836
2.253418	5.964221
2.2558594	5.5480795
2.2583008	4.8608937
2.2607422	3.7134044
2.2631836	2.107433
2.265625	0.76461196
2.2680664	2.6822302
2.2705078	5.2124405
2.2729492	7.760252
2.2753906	10.212278
2.277832	12.604424
2.2802734	15.058559
2.2827148	17.642292
2.2851562	20.249617
2.2875977	22.614542
2.290039	24.439796
2.2924805	25.545736
2.2949219	25.959589
2.2973633	25.902006
2.2998047	25.65745
2.302246	25.369709
2.3046875	24.90299
2.307129	23.89861
2.3095703	21.997744
2.3120117	19.083374
2.3144531	15.433659
2.3168945	11.758221
2.319336	9.038129
2.3217773	7.7996745
2.3242188	7.2681403
2.3266602	6.3194613
2.3291016	4.639983
2.331543	2.8704016
2.3339844	2.7879534
2.3364258	4.3028774
2.3388672	5.9403543
2.3413086	7.531257
2.34375	9.139779
2.3461914	10.533067
2.3486328	11.307314
2.3510742	11.313212
2.3535156	11.048108
2.355957	11.631246
2.3583984	13.729925
2.3608398	16.732943
2.3632812	19.663769
2.3657227	22.012188
2.368164	23.816422
2.3706055	25.356485
2.3730469	26.725777
2.3754883	27.673296
2.3779297	27.897482
2.380371	27.49704
2.3828125	27.131166
2.385254	27.569706
2.3876953	28.870726
2.3901367	30.212234
2.3925781	30.634315
2.3950195	29.768225
2.397461	28.04991
2.3999023	26.42941
2.4023438	25.646124
2.4047852	25.582954
2.4072266	25.472633
2.409668	24.638382
2.4121094	22.91598
2.4145508	20.660543
2.4169922	18.592533
2.4194336	17.535631
2.421875	17.910254
2.4243164	19.325886
2.4267578	20.913261
2.4291992	21.957064
2.4316406	22.258587
2.434082	22.215643
2.4365234	22.543869
2.4389648	23.615597
2.4414062	25.040157
2.4438477	26.067673
