
X-Axis: Frequency (hz)
Y-Axis: Fourier Amplitude (cm/s)
Number of Data Sets: 4


DATASET #1

Name: FAS H1 (cm/s)
Num Points: 2044
Info: 

X, Y Data:
0.009765625	0.1741833
0.012207031	0.22944607
0.014648438	0.2926892
0.017089844	0.36598042
0.01953125	0.45087445
0.021972656	0.54745764
0.024414062	0.6539672
0.026855469	0.7669678
0.029296875	0.8820007
0.03173828	0.9947455
0.034179688	1.1024787
0.036621094	1.2051088
0.0390625	1.3053633
0.041503906	1.408116
0.043945312	1.5188603
0.04638672	1.641382
0.048828125	1.7749146
0.05126953	1.9123315
0.053710938	2.040866
0.056152344	2.1460133
0.05859375	2.217701
0.061035156	2.2573528
0.06347656	2.284147
0.06591797	2.3374825
0.068359375	2.4694154
0.07080078	2.723165
0.07324219	3.1101418
0.075683594	3.6066525
0.078125	4.1688356
0.080566406	4.749188
0.08300781	5.3071
0.08544922	5.8142285
0.087890625	6.25598
0.09033203	6.630022
0.09277344	6.9429874
0.095214844	7.2071695
0.09765625	7.437881
0.10009766	7.6511593
0.10253906	7.8605113
0.10498047	8.072211
0.10742188	8.280282
0.10986328	8.46328
0.11230469	8.585074
0.11474609	8.600111
0.1171875	8.461611
0.11962891	8.129848
0.12207031	7.577694
0.12451172	6.7932124
0.12695312	5.7817965
0.12939453	4.5732303
0.13183594	3.2474248
0.13427734	2.0561266
0.13671875	1.8498958
0.13916016	2.9729197
0.14160156	4.5132327
0.14404297	6.1035566
0.14648438	7.633372
0.14892578	9.045056
0.15136719	10.292595
0.1538086	11.336315
0.15625	12.149297
0.1586914	12.724279
0.16113281	13.074593
0.16357422	13.228393
0.16601562	13.220399
0.16845703	13.085649
0.17089844	12.857011
0.17333984	12.565201
0.17578125	12.23912
0.17822266	11.905894
0.18066406	11.591699
0.18310547	11.325239
0.18554688	11.143835
0.18798828	11.098317
0.19042969	11.249586
0.1928711	11.653057
0.1953125	12.338511
0.1977539	13.300777
0.20019531	14.507519
0.20263672	15.913222
0.20507812	17.465715
0.20751953	19.102865
0.20996094	20.747654
0.21240234	22.310555
0.21484375	23.70046
0.21728516	24.838709
0.21972656	25.668823
0.22216797	26.158688
0.22460938	26.297869
0.22705078	26.095352
0.22949219	25.581125
0.2319336	24.8107
0.234375	23.86886
0.2368164	22.868866
0.23925781	21.945042
0.24169922	21.23707
0.24414062	20.865602
0.24658203	20.90297
0.24902344	21.351631
0.25146484	22.143627
0.25390625	23.160482
0.25634766	24.25899
0.25878906	25.290709
0.26123047	26.115694
0.26367188	26.617825
0.26611328	26.724527
0.2685547	26.424679
0.2709961	25.775896
0.2734375	24.897987
0.2758789	23.957869
0.2783203	23.150024
0.28076172	22.664799
0.28320312	22.636923
0.28564453	23.094316
0.28808594	23.951456
0.29052734	25.057112
0.29296875	26.251879
0.29541016	27.396318
0.29785156	28.375097
0.30029297	29.100815
0.30273438	29.52205
0.30517578	29.619394
0.3076172	29.381308
0.3100586	28.779425
0.3125	27.775034
0.3149414	26.363977
0.3173828	24.6288
0.31982422	22.75396
0.32226562	20.980888
0.32470703	19.520205
0.32714844	18.47261
0.32958984	17.806423
0.33203125	17.389536
0.33447266	17.04595
0.33691406	16.637533
0.33935547	16.187092
0.34179688	15.999778
0.34423828	16.626469
0.3466797	18.511051
0.3491211	21.607126
0.3515625	25.45178
0.3540039	29.472464
0.3564453	33.152653
0.35888672	36.07654
0.36132812	37.955227
0.36376953	38.65336
0.36621094	38.188614
0.36865234	36.690853
0.37109375	34.349724
0.37353516	31.40005
0.37597656	28.157803
0.37841797	25.053959
0.38085938	22.576332
0.38330078	21.07576
0.3857422	20.566689
0.3881836	20.768435
0.390625	21.35739
0.3930664	22.137617
0.3955078	23.03191
0.39794922	24.008064
0.40039062	25.04887
0.40283203	26.18704
0.40527344	27.55303
0.40771484	29.360804
0.41015625	31.803406
0.41259766	34.92097
0.41503906	38.536392
0.41748047	42.280975
0.41992188	45.67243
0.42236328	48.220287
0.4248047	49.547573
0.4272461	49.490967
0.4296875	48.126926
0.4321289	45.70315
0.4345703	42.519756
0.43701172	38.845695
0.43945312	34.92791
0.44189453	31.068176
0.44433594	27.678556
0.44677734	25.215826
0.44921875	23.956738
0.45166016	23.77563
0.45410156	24.202475
0.45654297	24.691545
0.45898438	24.774412
0.46142578	24.044762
0.4638672	22.150496
0.4663086	18.894262
0.46875	14.391155
0.4711914	9.247401
0.4736328	5.389717
0.47607422	7.0082445
0.47851562	11.416714
0.48095703	15.497664
0.48339844	18.418047
0.48583984	19.794714
0.48828125	19.494629
0.49072266	17.715858
0.49316406	15.027853
0.49560547	12.306008
0.49804688	10.5524
0.5004883	10.427711
0.5029297	11.737661
0.5053711	13.863494
0.5078125	16.357489
0.5102539	18.923603
0.5126953	21.256397
0.5151367	23.001427
0.5175781	23.821314
0.52001953	23.463482
0.52246094	21.750063
0.52490234	18.523005
0.52734375	13.659626
0.52978516	7.2105484
0.53222656	0.90495443
0.53466797	8.841673
0.5371094	16.815248
0.5395508	23.739893
0.5419922	29.096905
0.5444336	32.65536
0.546875	34.355072
0.5493164	34.19352
0.5517578	32.22976
0.5541992	28.687214
0.5566406	24.041307
0.55908203	19.00155
0.56152344	14.389078
0.56396484	10.946291
0.56640625	9.0570135
0.56884766	8.509352
0.57128906	8.821836
0.57373047	9.753364
0.5761719	11.235682
0.5786133	13.139009
0.5810547	15.263881
0.5834961	17.422808
0.5859375	19.460848
0.5883789	21.233765
0.5908203	22.610115
0.5932617	23.509657
0.5957031	23.937536
0.59814453	23.973835
0.60058594	23.719465
0.60302734	23.234587
0.60546875	22.509848
0.60791016	21.488401
0.61035156	20.12647
0.61279297	18.451841
0.6152344	16.576014
0.6176758	14.64699
0.6201172	12.785235
0.6225586	11.073977
0.625	9.619388
0.6274414	8.590257
0.6298828	8.114515
0.6323242	8.10597
0.6347656	8.333278
0.63720703	8.725012
0.63964844	9.536062
0.64208984	11.138532
0.64453125	13.613302
0.64697266	16.650661
0.64941406	19.734606
0.65185547	22.284975
0.6542969	23.747364
0.6567383	23.705221
0.6591797	21.988676
0.6616211	18.714863
0.6640625	14.276418
0.6665039	9.532308
0.6689453	7.1238766
0.6713867	10.245064
0.6738281	15.713053
0.67626953	20.99811
0.67871094	25.27986
0.68115234	28.396227
0.68359375	30.560438
0.68603516	32.118187
0.68847656	33.30805
0.69091797	34.14908
0.6933594	34.516678
0.6958008	34.324944
0.6982422	33.644386
0.7006836	32.62706
0.703125	31.304298
0.7055664	29.505598
0.7080078	27.02061
0.7104492	23.82487
0.7128906	20.206533
0.71533203	16.98258
0.71777344	15.887754
0.72021484	18.444159
0.72265625	23.560959
0.72509766	28.974735
0.72753906	33.06776
0.72998047	35.074375
0.7324219	34.926456
0.7348633	32.996407
0.7373047	29.827637
0.7397461	25.966063
0.7421875	21.888227
0.7446289	17.935158
0.7470703	14.237712
0.7495117	10.728344
0.7519531	7.2817836
0.75439453	3.9553099
0.75683594	2.2331731
0.75927734	4.636599
0.76171875	7.7982764
0.76416016	10.732224
0.76660156	13.406145
0.76904297	16.08207
0.7714844	19.130669
0.7739258	22.803331
0.7763672	27.063614
0.7788086	31.585775
0.78125	35.88689
0.7836914	39.460617
0.7861328	41.819164
0.7885742	42.48964
0.7910156	41.089947
0.79345703	37.50534
0.79589844	32.024975
0.79833984	25.304426
0.80078125	18.224758
0.80322266	11.965507
0.80566406	8.600394
0.80810547	9.443654
0.8105469	11.453832
0.8129883	12.219246
0.8154297	11.303651
0.8178711	9.200736
0.8203125	6.738771
0.8227539	4.719902
0.8251953	4.0411677
0.8276367	5.768871
0.8300781	9.958257
0.83251953	16.229624
0.83496094	23.996254
0.83740234	32.31172
0.83984375	40.080387
0.84228516	46.349243
0.84472656	50.467384
0.84716797	52.099247
0.8496094	51.217487
0.8520508	48.15974
0.8544922	43.676495
0.8569336	38.83015
0.859375	34.69264
0.8618164	31.955666
0.8642578	30.701548
0.8666992	30.489157
0.8691406	30.583853
0.87158203	30.130844
0.87402344	28.324331
0.87646484	24.629385
0.87890625	18.962494
0.88134766	11.744696
0.88378906	4.4729223
0.88623047	7.3349657
0.8886719	15.613731
0.8911133	23.403421
0.8935547	29.721386
0.8959961	34.052395
0.8984375	36.383835
0.9008789	37.2198
0.9033203	37.29691
0.9057617	37.181984
0.9082031	37.10385
0.91064453	37.08579
0.91308594	37.100338
0.91552734	37.097958
0.91796875	37.025166
0.92041016	36.902958
0.92285156	36.87225
0.92529297	37.127018
0.9277344	37.781475
0.9301758	38.783394
0.9326172	39.939655
0.9350586	40.996128
0.9375	41.65753
0.9399414	41.548363
0.9423828	40.25683
0.9448242	37.533375
0.9472656	33.516132
0.94970703	28.781408
0.95214844	24.151783
0.95458984	20.380503
0.95703125	17.92152
0.95947266	16.903372
0.96191406	17.227497
0.96435547	18.652515
0.9667969	20.82334
0.9692383	23.282438
0.9716797	25.532518
0.9741211	27.147734
0.9765625	27.866625
0.9790039	27.663773
0.9814453	26.857527
0.9838867	26.153229
0.9863281	26.300968
0.98876953	27.39626
0.99121094	28.717312
0.99365234	29.393557
0.99609375	28.992191
0.99853516	27.5601
1.0009766	25.38048
1.003418	22.784275
1.0058594	20.13107
1.0083008	17.83085
1.0107422	16.237087
1.0131836	15.436548
1.015625	15.182333
1.0180664	15.092994
1.0205078	14.877362
1.0229492	14.376885
1.0253906	13.484069
1.027832	12.098927
1.0302734	10.199944
1.0327148	7.956827
1.0351562	5.804243
1.0375977	4.4907293
1.0400391	4.640529
1.0424805	5.6968484
1.0449219	6.7756343
1.0473633	7.4230995
1.0498047	7.480309
1.0522461	7.024554
1.0546875	6.369905
1.0571289	6.0260434
1.0595703	6.564392
1.0620117	8.401079
1.0644531	11.66577
1.0668945	16.173227
1.0693359	21.439999
1.0717773	26.811956
1.0742188	31.670712
1.0766602	35.59046
1.0791016	38.341415
1.081543	39.75244
1.0839844	39.59284
1.0864258	37.621548
1.0888672	33.76765
1.0913086	28.254135
1.09375	21.54357
1.0961914	14.172544
1.0986328	6.6512694
1.1010742	0.5953813
1.1035156	6.743836
1.105957	11.493311
1.1083984	14.523069
1.1108398	16.006237
1.1132812	16.426718
1.1157227	16.284994
1.1181641	15.996244
1.1206055	16.077047
1.1230469	17.088001
1.1254883	19.109259
1.1279297	21.642923
1.1303711	24.154259
1.1328125	26.377146
1.1352539	28.177647
1.1376953	29.389013
1.1401367	29.905273
1.1425781	29.902239
1.1450195	29.848612
1.1474609	30.162542
1.1499023	30.819923
1.1523438	31.392504
1.1547852	31.42535
1.1572266	30.662819
1.159668	28.979158
1.1621094	26.254879
1.1645508	22.419237
1.1669922	17.63088
1.1694336	12.516068
1.171875	8.809718
1.1743164	9.643345
1.1767578	14.183888
1.1791992	19.609348
1.1816406	24.86387
1.184082	29.686047
1.1865234	34.102184
1.1889648	38.161816
1.1914062	41.73296
1.1938477	44.46842
1.1962891	45.97687
1.1987305	46.054646
1.2011719	44.785664
1.2036133	42.433186
1.2060547	39.23065
1.2084961	35.295986
1.2109375	30.804754
1.2133789	26.345629
1.2158203	23.203276
1.2182617	22.882278
1.2207031	25.437521
1.2231445	29.178316
1.2255859	32.325954
1.2280273	33.870132
1.2304688	33.596405
1.2329102	31.872816
1.2353516	29.282234
1.237793	26.22237
1.2402344	22.752377
1.2426758	18.830423
1.2451172	14.766562
1.2475586	11.683533
1.25	11.333849
1.2524414	13.736183
1.2548828	17.062035
1.2573242	20.12101
1.2597656	22.592009
1.262207	24.586802
1.2646484	26.308424
1.2670898	27.81723
1.2695312	28.973934
1.2719727	29.542643
1.2744141	29.325739
1.2768555	28.240404
1.2792969	26.34656
1.2817383	23.855211
1.2841797	21.10922
1.2866211	18.499784
1.2890625	16.335056
1.2915039	14.752222
1.2939453	13.803896
1.2963867	13.700246
1.2988281	14.871257
1.3012695	17.546833
1.3037109	21.415255
1.3061523	25.896381
1.3085938	30.490816
1.3110352	34.832424
1.3134766	38.578144
1.315918	41.362892
1.3183594	42.90357
1.3208008	43.14583
1.3232422	42.303635
1.3256836	40.750473
1.328125	38.840942
1.3305664	36.77069
1.3330078	34.52884
1.3354492	31.936699
1.3378906	28.748688
1.340332	24.79404
1.3427734	20.113092
1.3452148	15.018411
1.3476562	10.026763
1.3500977	5.725146
1.3525391	3.0257657
1.3549805	3.635888
1.3574219	5.7412124
1.3598633	7.62676
1.3623047	8.768084
1.3647461	8.906089
1.3671875	8.054583
1.3696289	6.534456
1.3720703	4.920621
1.3745117	3.916705
1.3769531	3.9700272
1.3793945	4.847986
1.3818359	6.0709105
1.3842773	7.1461883
1.3867188	7.564794
1.3891602	6.984718
1.3916016	5.3883553
1.394043	3.1936414
1.3964844	2.5019941
1.3989258	5.205372
1.4013672	8.655783
1.4038086	11.901875
1.40625	14.522659
1.4086914	16.274982
1.4111328	16.98434
1.4135742	16.434149
1.4160156	14.438212
1.418457	11.086249
1.4208984	6.9296412
1.4233398	3.1887772
1.4257812	3.2629437
1.4282227	5.791816
1.4306641	8.011977
1.4331055	9.793183
1.4355469	11.124533
1.4379883	11.78144
1.4404297	11.468097
1.4428711	10.06895
1.4453125	7.8311906
1.4477539	5.3623114
1.4501953	3.3971848
1.4526367	2.3972104
1.4550781	2.3023608
1.4575195	2.832786
1.4599609	3.698425
1.4624023	4.96984
1.4648438	7.0539556
1.4672852	9.878918
1.4697266	12.768228
1.472168	14.984445
1.4746094	16.12147
1.4770508	16.203712
1.4794922	15.556699
1.4819336	14.575677
1.484375	13.569195
1.4868164	12.796466
1.4892578	12.560045
1.4916992	13.055209
1.4941406	14.115897
1.496582	15.359757
1.4990234	16.521591
1.5014648	17.470667
1.5039062	18.022709
1.5063477	17.972431
1.5087891	17.400448
1.5112305	16.815838
1.5136719	16.705471
1.5161133	16.85269
1.5185547	16.472822
1.5209961	14.981922
1.5234375	12.423001
1.5258789	9.397736
1.5283203	6.7598524
1.5307617	5.183636
1.5332031	4.640496
1.5356445	4.6217213
1.5380859	5.075652
1.5405273	6.5486565
1.5429688	9.492182
1.5454102	13.777859
1.5478516	18.86658
1.550293	24.066631
1.5527344	28.760513
1.5551758	32.564644
1.5576172	35.327755
1.5600586	36.972267
1.5625	37.331467
1.5649414	36.1536
1.5673828	33.288578
1.5698242	28.933798
1.5722656	23.848402
1.574707	19.564337
1.5771484	18.238495
1.5795898	20.749485
1.5820312	25.527792
1.5844727	30.7705
1.5869141	35.427013
1.5893555	38.95071
1.5917969	41.108353
1.5942383	41.904728
1.5966797	41.501034
1.5991211	40.10355
1.6015625	37.869152
1.6040039	34.88394
1.6064453	31.218672
1.6088867	27.01612
1.6113281	22.568913
1.6137695	18.3883
1.6162109	15.224822
1.6186523	13.758565
1.6210938	13.80207
1.6235352	14.271402
1.6259766	14.232697
1.628418	13.467409
1.6308594	12.366508
1.6333008	11.421054
1.6357422	10.577526
1.6381836	9.241166
1.640625	7.0282683
1.6430664	4.6905913
1.6455078	5.1336207
1.6479492	8.266366
1.6503906	11.587331
1.652832	14.587657
1.6552734	17.742193
1.6577148	21.558098
1.6601562	25.865519
1.6625977	29.901474
1.6650391	32.879536
1.6674805	34.42631
1.6699219	34.674957
1.6723633	34.048824
1.6748047	32.90509
1.6772461	31.337667
1.6796875	29.298223
1.6821289	26.851234
1.6845703	24.276743
1.6870117	21.946007
1.6894531	20.110497
1.6918945	18.77128
1.6943359	17.691582
1.6967773	16.498865
1.6992188	14.80694
1.7016602	12.338423
1.7041016	9.023062
1.706543	5.0448856
1.7089844	1.1109635
1.7114258	3.8061378
1.7138672	7.708196
1.7163086	11.279062
1.71875	14.631595
1.7211914	17.890951
1.7236328	20.984388
1.7260742	23.654354
1.7285156	25.679548
1.730957	27.138838
1.7333984	28.49756
1.7358398	30.33444
1.7382812	32.842648
1.7407227	35.6513
1.7431641	38.181725
1.7456055	40.08389
1.7480469	41.35446
1.7504883	42.148476
1.7529297	42.541798
1.7553711	42.487564
1.7578125	41.94174
1.7602539	40.92573
1.7626953	39.42056
1.7651367	37.27095
1.7675781	34.30921
1.7700195	30.648123
1.7724609	26.859936
1.7749023	23.763735
1.7773438	21.769917
1.7797852	20.394392
1.7822266	18.726799
1.784668	16.27994
1.7871094	13.344869
1.7895508	10.830965
1.7919922	9.589573
1.7944336	9.390692
1.796875	9.223089
1.7993164	8.491227
1.8017578	7.290365
1.8041992	6.172777
1.8066406	5.7434926
1.809082	6.0186095
1.8115234	6.4320335
1.8139648	6.5120583
1.8164062	6.122612
1.8188477	5.4030766
1.8212891	4.6854253
1.8237305	4.4035497
1.8261719	4.9288654
1.8286133	6.3781567
1.8310547	8.610204
1.8334961	11.297497
1.8359375	14.011755
1.8383789	16.393847
1.8408203	18.349005
1.8432617	20.1266
1.8457031	22.142094
1.8481445	24.590626
1.8505859	27.223524
1.8530273	29.534367
1.8554688	31.134325
1.8579102	32.020683
1.8603516	32.600647
1.862793	33.416534
1.8652344	34.693752
1.8676758	36.126392
1.8701172	37.15682
1.8725586	37.44534
1.875	37.100044
1.8774414	36.507313
1.8798828	35.916206
1.8823242	35.188732
1.8847656	34.006927
1.887207	32.27216
1.8896484	30.23232
1.8920898	28.210974
1.8945312	26.279337
1.8969727	24.327137
1.8994141	22.493301
1.9018555	21.370432
1.9042969	21.498476
1.9067383	22.603703
1.9091797	23.747513
1.9116211	24.116665
1.9140625	23.445404
1.9165039	21.981796
1.9189453	20.236814
1.9213867	18.651428
1.9238281	17.336386
1.9262695	16.073217
1.9287109	14.567225
1.9311523	12.734264
1.9335938	10.907231
1.9360352	9.899642
1.9384766	10.42081
1.940918	12.062209
1.9433594	13.78523
1.9458008	14.925495
1.9482422	15.460104
1.9506836	15.902177
1.953125	16.842154
1.9555664	18.317429
1.9580078	19.762066
1.9604492	20.574657
1.9628906	20.58135
1.965332	20.100395
1.9677734	19.65843
1.9702148	19.546333
1.9726562	19.62975
1.9750977	19.62814
1.9775391	19.49256
1.9799805	19.500414
1.9824219	20.032955
1.9848633	21.244759
1.9873047	22.95738
1.9897461	24.852373
1.9921875	26.692886
1.9946289	28.39078
1.9970703	29.937641
1.9995117	31.299503
2.0019531	32.369213
2.0043945	33.01221
2.006836	33.16036
2.0092773	32.87325
2.0117188	32.31146
2.0141602	31.631628
2.0166016	30.876167
2.019043	29.952787
2.0214844	28.728338
2.0239258	27.166595
2.0263672	25.41014
2.0288086	23.746283
2.03125	22.444061
2.0336914	21.552874
2.0361328	20.849773
2.0385742	20.030172
2.0410156	18.978107
2.043457	17.893135
2.0458984	17.153465
2.0483398	16.944553
2.0507812	17.011768
2.0532227	16.880344
2.055664	16.268127
2.0581055	15.270103
2.0605469	14.232535
2.0629883	13.437273
2.0654297	12.867666
2.067871	12.30384
2.0703125	11.589922
2.072754	10.761267
2.0751953	9.982673
2.0776367	9.420088
2.0800781	9.14648
2.0825195	9.1312
2.084961	9.303977
2.0874023	9.636955
2.0898438	10.175494
2.0922852	10.973036
2.0947266	11.979909
2.097168	13.012135
2.0996094	13.839975
2.1020508	14.305462
2.1044922	14.384402
2.1069336	14.180446
2.109375	13.873674
2.1118164	13.655133
2.1142578	13.667101
2.1166992	13.963102
2.1191406	14.499694
2.121582	15.166601
2.1240234	15.853461
2.1264648	16.527634
2.1289062	17.268427
2.1313477	18.196201
2.133789	19.314692
2.1362305	20.406582
2.1386719	21.102148
2.1411133	21.079176
2.1435547	20.270273
2.145996	18.97394
2.1484375	17.758106
2.150879	17.075144
2.1533203	16.854824
2.1557617	16.640217
2.1582031	16.144672
2.1606445	15.570538
2.163086	15.402757
2.1655273	15.836597
2.1679688	16.487902
2.1704102	16.757563
2.1728516	16.291552
2.175293	15.130978
2.1777344	13.634487
2.1801758	12.303724
2.1826172	11.58754
2.1850586	11.718479
2.1875	12.633349
2.1899414	14.005535
2.1923828	15.374828
2.1948242	16.316452
2.1972656	16.568317
2.199707	16.053158
2.2021484	14.802742
2.2045898	12.868878
2.2070312	10.324536
2.2094727	7.3868117
2.211914	4.727824
2.2143555	4.115218
2.2167969	5.958563
2.2192383	8.263526
2.2216797	10.254207
2.224121	11.794585
2.2265625	12.836568
2.229004	13.29253
2.2314453	13.110527
2.2338867	12.392016
2.2363281	11.408572
2.2387695	10.485078
2.241211	9.851181
2.2436523	9.592533
2.2460938	9.668721
2.2485352	9.883574
2.2509766	9.895679
2.253418	9.364741
2.2558594	8.130243
2.2583008	6.290355
2.2607422	4.164514
2.2631836	2.2669
2.265625	1.9548057
2.2680664	3.7083297
2.2705078	6.185333
2.2729492	8.974882
2.2753906	11.694562
2.277832	13.921407
2.2802734	15.374003
2.2827148	16.053617
2.2851562	16.256828
2.2875977	16.41173
2.290039	16.782045
2.2924805	17.28999
2.2949219	17.673077
2.2973633	17.802876
2.2998047	17.856665
2.302246	18.187307
2.3046875	18.954866
2.307129	19.894073
2.3095703	20.517141
2.3120117	20.50953
2.3144531	19.963894
2.3168945	19.314001
2.319336	18.967165
2.3217773	18.896807
2.3242188	18.665842
2.3266602	17.848734
2.3291016	16.360195
2.331543	14.469915
2.3339844	12.576744
2.3364258	10.904236
2.3388672	9.362701
2.3413086	7.723579
2.34375	5.896769
2.3461914	4.075451
2.3486328	2.849737
2.3510742	3.0507586
2.3535156	4.308433
2.355957	5.912571
2.3583984	7.6273136
2.3608398	9.271988
2.3632812	10.589822
2.3657227	11.311651
2.368164	11.25786
2.3706055	10.407346
2.3730469	8.897841
2.3754883	6.93779
2.3779297	4.6581345
2.380371	2.0240724
2.3828125	1.0990682
2.385254	4.6645246
2.3876953	8.474133
2.3901367	12.164417
2.3925781	15.434006
2.3950195	18.176186
2.397461	20.456219
2.3999023	22.339615
2.4023438	23.730534
2.4047852	24.382215
2.4072266	24.07037
2.409668	22.785488
2.4121094	20.836655
2.4145508	18.80659
2.4169922	17.299017
2.4194336	16.52362
2.421875	16.130627
2.4243164	15.604456
2.4267578	14.786648
2.4291992	14.071444
2.4316406	14.083831
2.434082	14.905559
2.4365234	15.807316
2.4389648	15.89693
2.4414062	14.728114
2.4438477	12.505734
2.446289	10.039374
