
X-Axis: Frequency (hz)
Y-Axis: Fourier Amplitude (cm/s)
Number of Data Sets: 4


DATASET #1

Name: FAS H1 (cm/s)
Num Points: 2044
Info: 

X, Y Data:
0.009765625	0.11827362
0.012207031	0.16076446
0.014648438	0.20909652
0.017089844	0.26339957
0.01953125	0.3238153
0.021972656	0.39007366
0.024414062	0.46111637
0.026855469	0.53499055
0.029296875	0.6090291
0.03173828	0.6803194
0.034179688	0.7462569
0.036621094	0.8050096
0.0390625	0.85579306
0.041503906	0.89923745
0.043945312	0.9377451
0.04638672	0.9753392
0.048828125	1.0162092
0.05126953	1.0621686
0.053710938	1.1107627
0.056152344	1.1562347
0.05859375	1.1936234
0.061035156	1.2238104
0.06347656	1.25648
0.06591797	1.3084629
0.068359375	1.3968459
0.07080078	1.5304862
0.07324219	1.7067306
0.075683594	1.9156905
0.078125	2.147726
0.080566406	2.3993185
0.08300781	2.6752088
0.08544922	2.9862232
0.087890625	3.3437545
0.09033203	3.7534301
0.09277344	4.210987
0.095214844	4.7016253
0.09765625	5.2021227
0.10009766	5.6842866
0.10253906	6.118387
0.10498047	6.475304
0.10742188	6.727136
0.10986328	6.847188
0.11230469	6.8113375
0.11474609	6.6021876
0.1171875	6.2150297
0.11962891	5.663074
0.12207031	4.9797754
0.12451172	4.218922
0.12695312	3.456699
0.12939453	2.7999933
0.13183594	2.3887503
0.13427734	2.328668
0.13671875	2.5662692
0.13916016	2.942823
0.14160156	3.340608
0.14404297	3.713029
0.14648438	4.0590405
0.14892578	4.397566
0.15136719	4.7489414
0.1538086	5.123616
0.15625	5.5187235
0.1586914	5.921488
0.16113281	6.31612
0.16357422	6.690506
0.16601562	7.0405335
0.16845703	7.372263
0.17089844	7.70264
0.17333984	8.057845
0.17578125	8.466874
0.17822266	8.950232
0.18066406	9.5088215
0.18310547	10.120218
0.18554688	10.743748
0.18798828	11.329091
0.19042969	11.822765
0.1928711	12.172598
0.1953125	12.333863
0.1977539	12.278803
0.20019531	12.006458
0.20263672	11.547416
0.20507812	10.960481
0.20751953	10.322383
0.20996094	9.713514
0.21240234	9.202053
0.21484375	8.828274
0.21728516	8.594232
0.21972656	8.465704
0.22216797	8.387351
0.22460938	8.30244
0.22705078	8.167037
0.22949219	7.9554863
0.2319336	7.6598616
0.234375	7.28844
0.2368164	6.8679657
0.23925781	6.4536204
0.24169922	6.1455474
0.24414062	6.0926433
0.24658203	6.4425216
0.24902344	7.2442765
0.25146484	8.414818
0.25390625	9.80479
0.25634766	11.267676
0.25878906	12.683663
0.26123047	13.957603
0.26367188	15.015005
0.26611328	15.805181
0.2685547	16.306725
0.2709961	16.525383
0.2734375	16.47969
0.2758789	16.18
0.2783203	15.613929
0.28076172	14.750215
0.28320312	13.56429
0.28564453	12.073938
0.28808594	10.364423
0.29052734	8.58726
0.29296875	6.934982
0.29541016	5.6123195
0.29785156	4.821426
0.30029297	4.7342463
0.30273438	5.4169674
0.30517578	6.808086
0.3076172	8.772877
0.3100586	11.118073
0.3125	13.598351
0.3149414	15.956477
0.3173828	17.972641
0.31982422	19.491304
0.32226562	20.419758
0.32470703	20.716185
0.32714844	20.386597
0.32958984	19.49089
0.33203125	18.141699
0.33447266	16.48341
0.33691406	14.657138
0.33935547	12.772559
0.34179688	10.903975
0.34423828	9.107721
0.3466797	7.443262
0.3491211	5.9948573
0.3515625	4.9237094
0.3540039	4.5285645
0.3564453	5.0468593
0.35888672	6.3107433
0.36132812	7.979865
0.36376953	9.812846
0.36621094	11.629859
0.36865234	13.22595
0.37109375	14.365996
0.37353516	14.863529
0.37597656	14.670791
0.37841797	13.901731
0.38085938	12.765157
0.38330078	11.459957
0.3857422	10.117917
0.3881836	8.829088
0.390625	7.6970334
0.3930664	6.8472595
0.3955078	6.3523984
0.39794922	6.12108
0.40039062	5.9015875
0.40283203	5.43451
0.40527344	4.586737
0.40771484	3.382425
0.41015625	2.1646626
0.41259766	2.5881944
0.41503906	5.0570016
0.41748047	8.253862
0.41992188	11.543985
0.42236328	14.45905
0.4248047	16.679956
0.4272461	18.077377
0.4296875	18.652332
0.4321289	18.434221
0.4345703	17.442764
0.43701172	15.738126
0.43945312	13.489072
0.44189453	11.004633
0.44433594	8.764875
0.44677734	7.4890842
0.44921875	7.8654428
0.45166016	9.730116
0.45410156	12.321469
0.45654297	14.965797
0.45898438	17.136894
0.46142578	18.46106
0.4638672	18.786812
0.4663086	18.19352
0.46875	16.891895
0.4711914	15.091415
0.4736328	12.948636
0.47607422	10.614379
0.47851562	8.286197
0.48095703	6.197281
0.48339844	4.5726633
0.48583984	3.5817568
0.48828125	3.2241318
0.49072266	3.3122582
0.49316406	3.7726161
0.49560547	4.728837
0.49804688	6.222853
0.5004883	8.085478
0.5029297	9.999654
0.5053711	11.561738
0.5078125	12.361024
0.5102539	12.10279
0.5126953	10.724626
0.5151367	8.47798
0.5175781	6.1264834
0.52001953	5.51207
0.52246094	7.7051406
0.52490234	10.918709
0.52734375	13.775684
0.52978516	15.594522
0.53222656	16.076654
0.53466797	15.300824
0.5371094	13.752574
0.5395508	12.292488
0.5419922	11.859413
0.5444336	12.723931
0.546875	14.239218
0.5493164	15.570676
0.5517578	16.186182
0.5541992	15.90435
0.5566406	14.84831
0.55908203	13.387948
0.56152344	12.041135
0.56396484	11.279525
0.56640625	11.254965
0.56884766	11.706236
0.57128906	12.193481
0.57373047	12.35188
0.5761719	11.974563
0.5786133	10.987619
0.5810547	9.391656
0.5834961	7.2218356
0.5859375	4.5543156
0.5883789	1.5625919
0.5908203	1.8576597
0.5932617	5.083607
0.5957031	8.260804
0.59814453	11.303691
0.60058594	14.15981
0.60302734	16.718641
0.60546875	18.79123
0.60791016	20.154974
0.61035156	20.628069
0.61279297	20.12489
0.6152344	18.674696
0.6176758	16.427439
0.6201172	13.667981
0.6225586	10.80441
0.625	8.260688
0.6274414	6.2723627
0.6298828	4.7854686
0.6323242	3.720185
0.6347656	3.4248967
0.63720703	4.39144
0.63964844	6.3159766
0.64208984	8.599578
0.64453125	10.733287
0.64697266	12.339465
0.64941406	13.262572
0.65185547	13.566545
0.6542969	13.408522
0.6567383	12.92977
0.6591797	12.267772
0.6616211	11.60121
0.6640625	11.103554
0.6665039	10.84104
0.6689453	10.72372
0.6713867	10.533211
0.6738281	10.005176
0.67626953	8.949054
0.67871094	7.356891
0.68115234	5.5016375
0.68359375	4.1509604
0.68603516	4.3876987
0.68847656	5.749316
0.69091797	7.058336
0.6933594	7.835566
0.6958008	8.062073
0.6982422	7.9064646
0.7006836	7.5696507
0.703125	7.230804
0.7055664	6.983405
0.7080078	6.7312055
0.7104492	6.244865
0.7128906	5.3841047
0.71533203	4.2283397
0.71777344	3.0116737
0.72021484	1.95067
0.72265625	1.1239938
0.72509766	0.7479236
0.72753906	1.2977895
0.72998047	2.123012
0.7324219	2.757436
0.7348633	3.0161834
0.7373047	3.0294423
0.7397461	3.3574712
0.7421875	4.426427
0.7446289	5.851378
0.7470703	6.957469
0.7495117	7.2504973
0.7519531	6.661674
0.75439453	5.8356643
0.75683594	6.072803
0.75927734	7.703779
0.76171875	9.66089
0.76416016	11.030898
0.76660156	11.319153
0.76904297	10.348645
0.7714844	8.396017
0.7739258	6.5576158
0.7763672	6.6778183
0.7788086	8.733196
0.78125	11.098372
0.7836914	12.930958
0.7861328	13.93422
0.7885742	13.977014
0.7910156	13.066851
0.79345703	11.430772
0.79589844	9.522775
0.79833984	7.9846163
0.80078125	7.576675
0.80322266	8.707956
0.80566406	11.038471
0.80810547	14.03271
0.8105469	17.319706
0.8129883	20.618223
0.8154297	23.620975
0.8178711	25.96002
0.8203125	27.282965
0.8227539	27.404686
0.8251953	26.431633
0.8276367	24.759266
0.8300781	22.919071
0.83251953	21.325937
0.83496094	20.03362
0.83740234	18.686054
0.83984375	16.791285
0.84228516	14.151815
0.84472656	11.169245
0.84716797	8.865726
0.8496094	8.213261
0.8520508	8.807811
0.8544922	9.541272
0.8569336	10.042542
0.859375	10.725721
0.8618164	12.180907
0.8642578	14.362784
0.8666992	16.54519
0.8691406	17.966034
0.87158203	18.271265
0.87402344	17.578821
0.87646484	16.300718
0.87890625	14.878494
0.88134766	13.563114
0.88378906	12.326241
0.88623047	10.9646
0.8886719	9.351244
0.8911133	7.635607
0.8935547	6.208863
0.8959961	5.3519835
0.8984375	4.8478465
0.9008789	4.213754
0.9033203	3.1952167
0.9057617	1.9354763
0.9082031	1.3671246
0.91064453	2.3525572
0.91308594	3.6197479
0.91552734	4.7574925
0.91796875	5.783222
0.92041016	6.75792
0.92285156	7.673124
0.92529297	8.429824
0.9277344	8.899842
0.9301758	9.015863
0.9326172	8.762947
0.9350586	8.065406
0.9375	6.781213
0.9399414	4.9507303
0.9423828	3.3687687
0.9448242	3.9953399
0.9472656	6.2204733
0.94970703	8.384893
0.95214844	9.914237
0.95458984	10.682153
0.95703125	10.780793
0.95947266	10.366255
0.96191406	9.5264
0.96435547	8.285451
0.9667969	6.731863
0.9692383	5.160419
0.9716797	4.225807
0.9741211	4.5723424
0.9765625	5.6635504
0.9790039	6.542769
0.9814453	6.7119913
0.9838867	6.0776324
0.9863281	4.821208
0.98876953	3.3386583
0.99121094	2.3215616
0.99365234	2.391844
0.99609375	2.8470328
0.99853516	2.9795601
1.0009766	2.7743378
1.003418	2.5520973
1.0058594	2.6107123
1.0083008	2.989143
1.0107422	3.7188215
1.0131836	4.9550653
1.015625	6.6854587
1.0180664	8.624495
1.0205078	10.370394
1.0229492	11.563349
1.0253906	11.991504
1.027832	11.6579
1.0302734	10.792515
1.0327148	9.774845
1.0351562	8.968496
1.0375977	8.561175
1.0400391	8.55815
1.0424805	8.906247
1.0449219	9.56228
1.0473633	10.463252
1.0498047	11.496275
1.0522461	12.517883
1.0546875	13.386968
1.0571289	13.965877
1.0595703	14.103793
1.0620117	13.666063
1.0644531	12.632405
1.0668945	11.197266
1.0693359	9.764862
1.0717773	8.73282
1.0742188	8.105709
1.0766602	7.419562
1.0791016	6.2249303
1.081543	4.632888
1.0839844	3.7619944
1.0864258	4.6843367
1.0888672	6.1824007
1.0913086	7.238362
1.09375	7.836292
1.0961914	8.513509
1.0986328	9.8562975
1.1010742	12.020399
1.1035156	14.770746
1.105957	17.800238
1.1083984	20.852726
1.1108398	23.691631
1.1132812	26.104761
1.1157227	27.992945
1.1181641	29.396597
1.1206055	30.342905
1.1230469	30.669567
1.1254883	30.092215
1.1279297	28.475147
1.1303711	26.010101
1.1328125	23.154827
1.1352539	20.444998
1.1376953	18.341457
1.1401367	17.12134
1.1425781	16.768044
1.1450195	16.974314
1.1474609	17.34234
1.1499023	17.592205
1.1523438	17.587002
1.1547852	17.195219
1.1572266	16.19047
1.159668	14.337895
1.1621094	11.5778
1.1645508	8.184603
1.1669922	5.1726546
1.1694336	5.2073293
1.171875	8.088997
1.1743164	11.19
1.1767578	13.740209
1.1791992	15.734705
1.1816406	17.315678
1.184082	18.504103
1.1865234	19.191502
1.1889648	19.253323
1.1914062	18.61952
1.1938477	17.290876
1.1962891	15.34024
1.1987305	12.878917
1.2011719	9.979208
1.2036133	6.6314216
1.2060547	2.856749
1.2084961	1.7822453
1.2109375	5.9437485
1.2133789	9.927419
1.2158203	13.243711
1.2182617	15.719501
1.2207031	17.416578
1.2231445	18.528456
1.2255859	19.225689
1.2280273	19.557432
1.2304688	19.475275
1.2329102	18.94016
1.2353516	18.029865
1.237793	16.9829
1.2402344	16.119875
1.2426758	15.637867
1.2451172	15.457917
1.2475586	15.322473
1.25	14.997038
1.2524414	14.333994
1.2548828	13.237043
1.2573242	11.663013
1.2597656	9.650803
1.262207	7.3084574
1.2646484	4.7976403
1.2670898	2.4143224
1.2695312	1.3144666
1.2719727	2.5497103
1.2744141	3.8310604
1.2768555	4.6529922
1.2792969	4.869213
1.2817383	4.448314
1.2841797	3.705108
1.2866211	3.3940613
1.2890625	4.023797
1.2915039	5.232642
1.2939453	6.634148
1.2963867	8.05256
1.2988281	9.384957
1.3012695	10.601096
1.3037109	11.704738
1.3061523	12.62197
1.3085938	13.169507
1.3110352	13.166574
1.3134766	12.563301
1.315918	11.42831
1.3183594	9.823677
1.3208008	7.822512
1.3232422	5.929263
1.3256836	5.7220726
1.328125	7.9282155
1.3305664	10.966941
1.3330078	13.636328
1.3354492	15.353483
1.3378906	15.865254
1.340332	15.162452
1.3427734	13.428864
1.3452148	11.007515
1.3476562	8.494512
1.3500977	7.050867
1.3525391	7.854967
1.3549805	10.13982
1.3574219	12.497488
1.3598633	14.230546
1.3623047	15.139853
1.3647461	15.269782
1.3671875	14.794853
1.3696289	13.994333
1.3720703	13.209412
1.3745117	12.732501
1.3769531	12.720498
1.3793945	13.222682
1.3818359	14.23356
1.3842773	15.65867
1.3867188	17.26947
1.3891602	18.750307
1.3916016	19.781021
1.394043	20.086037
1.3964844	19.485687
1.3989258	17.963242
1.4013672	15.666969
1.4038086	12.809097
1.40625	9.603727
1.4086914	6.498021
1.4111328	5.0613885
1.4135742	6.9474306
1.4160156	10.164949
1.418457	13.022388
1.4208984	14.818123
1.4233398	15.310134
1.4257812	14.624378
1.4282227	13.162386
1.4306641	11.436382
1.4331055	9.8933325
1.4355469	8.798036
1.4379883	8.217072
1.4404297	8.1063795
1.4428711	8.437555
1.4453125	9.266032
1.4477539	10.662089
1.4501953	12.533994
1.4526367	14.532047
1.4550781	16.146486
1.4575195	16.928389
1.4599609	16.723953
1.4624023	15.822715
1.4648438	14.878422
1.4672852	14.485732
1.4697266	14.725369
1.472168	15.343663
1.4746094	16.253716
1.4770508	17.513456
1.4794922	18.941483
1.4819336	20.073742
1.484375	20.511482
1.4868164	20.207233
1.4892578	19.482084
1.4916992	18.844585
1.4941406	18.733746
1.496582	19.293295
1.4990234	20.299343
1.5014648	21.299095
1.5039062	21.856817
1.5063477	21.731127
1.5087891	20.902338
1.5112305	19.485312
1.5136719	17.628017
1.5161133	15.480121
1.5185547	13.242789
1.5209961	11.2306
1.5234375	9.822394
1.5258789	9.248419
1.5283203	9.440611
1.5307617	10.18339
1.5332031	11.27501
1.5356445	12.516618
1.5380859	13.718616
1.5405273	14.778829
1.5429688	15.723145
1.5454102	16.612333
1.5478516	17.371729
1.550293	17.763243
1.5527344	17.57104
1.5551758	16.800875
1.5576172	15.695241
1.5600586	14.56323
1.5625	13.564362
1.5649414	12.620164
1.5673828	11.520905
1.5698242	10.13883
1.5722656	8.629258
1.574707	7.4939265
1.5771484	7.200004
1.5795898	7.5082865
1.5820312	7.775674
1.5844727	7.725992
1.5869141	7.4997153
1.5893555	7.243235
1.5917969	6.907148
1.5942383	6.6738253
1.5966797	7.4051595
1.5991211	9.706394
1.6015625	12.948055
1.6040039	16.140926
1.6064453	18.53953
1.6088867	19.70686
1.6113281	19.494366
1.6137695	18.0108
1.6162109	15.590081
1.6186523	12.830223
1.6210938	10.789464
1.6235352	10.816935
1.6259766	12.978605
1.628418	15.913038
1.6308594	18.473583
1.6333008	20.08195
1.6357422	20.534246
1.6381836	19.86146
1.640625	18.25402
1.6430664	16.001663
1.6455078	13.414072
1.6479492	10.732097
1.6503906	8.0786495
1.652832	5.498766
1.6552734	3.0684521
1.6577148	1.0925764
1.6601562	1.3565922
1.6625977	2.4997284
1.6650391	3.2145557
1.6674805	3.5403402
1.6699219	3.659511
1.6723633	3.802196
1.6748047	4.2521725
1.6772461	5.328832
1.6796875	7.21633
1.6821289	9.828524
1.6845703	12.868497
1.6870117	15.954355
1.6894531	18.72564
1.6918945	20.895075
1.6943359	22.24561
1.6967773	22.626432
1.6992188	21.996912
1.7016602	20.477972
1.7041016	18.322598
1.706543	15.793954
1.7089844	13.093596
1.7114258	10.487616
1.7138672	8.513986
1.7163086	7.7211866
1.71875	7.778983
1.7211914	7.7196474
1.7236328	7.0216126
1.7260742	5.7929115
1.7285156	4.4029903
1.730957	3.0924098
1.7333984	2.107884
1.7358398	2.573571
1.7382812	4.442094
1.7407227	6.566005
1.7431641	8.370798
1.7456055	9.590101
1.7480469	10.171189
1.7504883	10.207991
1.7529297	9.866831
1.7553711	9.3233595
1.7578125	8.711044
1.7602539	8.094924
1.7626953	7.510588
1.7651367	7.0553403
1.7675781	6.910412
1.7700195	7.1958375
1.7724609	7.818298
1.7749023	8.543403
1.7773438	9.1453905
1.7797852	9.445845
1.7822266	9.289793
1.784668	8.551371
1.7871094	7.1753235
1.7895508	5.2064657
1.7919922	2.7775235
1.7944336	0.51673526
1.796875	3.0225768
1.7993164	5.9078255
1.8017578	8.568967
1.8041992	10.806238
1.8066406	12.513351
1.809082	13.668929
1.8115234	14.267946
1.8139648	14.283602
1.8164062	13.727779
1.8188477	12.749116
1.8212891	11.64484
1.8237305	10.740546
1.8261719	10.240499
1.8286133	10.226958
1.8310547	10.76005
1.8334961	11.825191
1.8359375	13.183659
1.8383789	14.410767
1.8408203	15.101287
1.8432617	15.054733
1.8457031	14.374612
1.8481445	13.480082
1.8505859	12.966706
1.8530273	13.221114
1.8554688	14.088494
1.8579102	15.096252
1.8603516	15.905007
1.862793	16.460102
1.8652344	16.85358
1.8676758	17.120195
1.8701172	17.174292
1.8725586	16.918438
1.875	16.367529
1.8774414	15.665189
1.8798828	15.000422
1.8823242	14.48926
1.8847656	14.089413
1.887207	13.612479
1.8896484	12.843282
1.8920898	11.67793
1.8945312	10.177923
1.8969727	8.520294
1.8994141	6.9091635
1.9018555	5.532071
1.9042969	4.577414
1.9067383	4.2126894
1.9091797	4.452412
1.9116211	5.1354938
1.9140625	6.066356
1.9165039	7.056163
1.9189453	7.914949
1.9213867	8.49122
1.9238281	8.717349
1.9262695	8.607174
1.9287109	8.208434
1.9311523	7.5614696
1.9335938	6.70706
1.9360352	5.725311
1.9384766	4.7504616
1.940918	3.9383123
1.9433594	3.4031193
1.9458008	3.1578038
1.9482422	3.1163888
1.9506836	3.1768558
1.953125	3.298261
1.9555664	3.5085325
1.9580078	3.8622098
1.9604492	4.3980403
1.9628906	5.118591
1.965332	5.9827666
1.9677734	6.9099464
1.9702148	7.805111
1.9726562	8.591139
1.9750977	9.224184
1.9775391	9.686837
1.9799805	9.971266
1.9824219	10.070236
1.9848633	9.981994
1.9873047	9.71773
1.9897461	9.303588
1.9921875	8.774517
1.9946289	8.166976
1.9970703	7.5195055
1.9995117	6.889005
2.0019531	6.3723626
2.0043945	6.093608
2.006836	6.1150236
2.0092773	6.3527746
2.0117188	6.64305
2.0141602	6.912656
2.0166016	7.2938547
2.019043	8.0653515
2.0214844	9.391803
2.0239258	11.124132
2.0263672	12.897964
2.0288086	14.352675
2.03125	15.293481
2.0336914	15.757163
2.0361328	15.937833
2.0385742	15.979841
2.0410156	15.805232
2.043457	15.172011
2.0458984	13.902317
2.0483398	12.068315
2.0507812	10.053415
2.0532227	8.518198
2.055664	8.113661
2.0581055	8.824692
2.0605469	9.998964
2.0629883	11.078503
2.0654297	11.837472
2.067871	12.274158
2.0703125	12.475454
2.072754	12.524309
2.0751953	12.467978
2.0776367	12.321969
2.0800781	12.077499
2.0825195	11.698528
2.084961	11.120603
2.0874023	10.265908
2.0898438	9.082734
2.0922852	7.5945015
2.0947266	5.9237823
2.097168	4.306556
2.0996094	3.195214
2.1020508	3.2267349
2.1044922	4.1788845
2.1069336	5.234017
2.109375	5.920659
2.1118164	6.053101
2.1142578	5.6158786
2.1166992	4.681976
2.1191406	3.3456714
2.121582	1.7192414
2.1240234	0.65015167
2.1264648	2.3229852
2.1289062	4.12156
2.1313477	5.60521
2.133789	6.6112733
2.1362305	7.098764
2.1386719	7.1612825
2.1411133	7.00148
2.1435547	6.8583236
2.145996	6.908264
2.1484375	7.1797204
2.150879	7.5382876
2.1533203	7.7627845
2.1557617	7.663412
2.1582031	7.176751
2.1606445	6.394907
2.163086	5.5159674
2.1655273	4.738081
2.1679688	4.1605825
2.1704102	3.765485
2.1728516	3.466025
2.175293	3.1438246
2.1777344	2.6907241
2.1801758	2.1375034
2.1826172	1.9235239
2.1850586	2.6226625
2.1875	3.8869557
2.1899414	5.235349
2.1923828	6.462266
2.1948242	7.5182667
2.1972656	8.396449
2.199707	9.0361395
2.2021484	9.298631
2.2045898	9.030548
2.2070312	8.154585
2.2094727	6.724794
2.211914	4.9391418
2.2143555	3.2189646
2.2167969	2.6992424
2.2192383	4.1437
2.2216797	6.33672
2.224121	8.599907
2.2265625	10.663587
2.229004	12.398099
2.2314453	13.783549
2.2338867	14.856255
2.2363281	15.613561
2.2387695	15.964661
2.241211	15.78822
2.2436523	15.058017
2.2460938	13.936867
2.2485352	12.755466
2.2509766	11.842144
2.253418	11.297228
2.2558594	10.973693
2.2583008	10.743019
2.2607422	10.739853
2.2631836	11.276055
2.265625	12.444998
2.2680664	13.920395
2.2705078	15.219728
2.2729492	16.032846
2.2753906	16.348658
2.277832	16.380632
2.2802734	16.35059
2.2827148	16.284985
2.2851562	16.016287
2.2875977	15.373358
2.290039	14.35465
2.2924805	13.15824
2.2949219	12.07852
2.2973633	11.330939
2.2998047	10.912502
2.302246	10.623962
2.3046875	10.238542
2.307129	9.65444
2.3095703	8.923767
2.3120117	8.146218
2.3144531	7.314729
2.3168945	6.2892737
2.319336	4.9518294
2.3217773	3.3707912
2.3242188	1.8254362
2.3266602	0.75521153
2.3291016	0.7926253
2.331543	1.4920597
2.3339844	2.595451
2.3364258	3.8694541
2.3388672	4.8955092
2.3413086	5.397852
2.34375	5.465661
2.3461914	5.585948
2.3486328	6.2373323
2.3510742	7.3502274
2.3535156	8.578673
2.355957	9.799351
2.3583984	11.11138
2.3608398	12.542606
2.3632812	13.874149
2.3657227	14.764166
2.368164	14.980145
2.3706055	14.53299
2.3730469	13.65886
2.3754883	12.6646
2.3779297	11.714782
2.380371	10.733994
2.3828125	9.535988
2.385254	8.030118
2.3876953	6.294742
2.3901367	4.483784
2.3925781	2.6821666
2.3950195	0.87713575
2.397461	1.0109967
2.3999023	2.7564502
2.4023438	4.205616
2.4047852	5.1784177
2.4072266	5.6736956
2.409668	5.8654246
2.4121094	5.945008
2.4145508	5.9414167
2.4169922	5.7530727
2.4194336	5.373017
2.421875	5.0766754
2.4243164	5.339308
2.4267578	6.3452587
2.4291992	7.80377
2.4316406	9.336197
2.434082	10.663621
2.4365234	11.596256
2.4389648	12.046296
2.4414062	12.083533
2.4438477	11.949077
2.446289	11.93551
2.4487305	12.162774
2.4511719	12.481489
2.4536133	12.632588
2.4560547	12.472144
2.458496	12.06402
