
X-Axis: Frequency (hz)
Y-Axis: Fourier Amplitude (cm/s)
Number of Data Sets: 4


DATASET #1

Name: FAS H1 (cm/s)
Num Points: 2044
Info: 

X, Y Data:
0.009765625	0.27519768
0.012207031	0.3999475
0.014648438	0.5520781
0.017089844	0.7282176
0.01953125	0.9207916
0.021972656	1.1179847
0.024414062	1.3043002
0.026855469	1.462524
0.029296875	1.5781573
0.03173828	1.6468549
0.034179688	1.6845499
0.036621094	1.7369807
0.0390625	1.8757077
0.041503906	2.1630235
0.043945312	2.6081483
0.04638672	3.1660848
0.048828125	3.7667737
0.05126953	4.3382015
0.053710938	4.821301
0.056152344	5.1853285
0.05859375	5.447366
0.061035156	5.694367
0.06347656	6.0922456
0.06591797	6.846446
0.068359375	8.106143
0.07080078	9.895803
0.07324219	12.135482
0.075683594	14.693536
0.078125	17.419195
0.080566406	20.157303
0.08300781	22.757093
0.08544922	25.07943
0.087890625	27.001585
0.09033203	28.419073
0.09277344	29.24563
0.095214844	29.414793
0.09765625	28.884705
0.10009766	27.645912
0.10253906	25.729288
0.10498047	23.210644
0.10742188	20.214083
0.10986328	16.923616
0.11230469	13.624999
0.11474609	10.814304
0.1171875	9.3153925
0.11962891	9.808196
0.12207031	11.844634
0.12451172	14.443859
0.12695312	16.945848
0.12939453	19.00501
0.13183594	20.451103
0.13427734	21.219196
0.13671875	21.319992
0.13916016	20.830044
0.14160156	19.893108
0.14404297	18.722454
0.14648438	17.590166
0.14892578	16.784227
0.15136719	16.524162
0.1538086	16.871864
0.15625	17.714893
0.1586914	18.838655
0.16113281	20.0147
0.16357422	21.051516
0.16601562	21.812523
0.16845703	22.220972
0.17089844	22.258993
0.17333984	21.95902
0.17578125	21.3863
0.17822266	20.61517
0.18066406	19.705627
0.18310547	18.686478
0.18554688	17.547571
0.18798828	16.23857
0.19042969	14.672338
0.1928711	12.73618
0.1953125	10.317302
0.1977539	7.3535585
0.20019531	4.0047717
0.20263672	2.6209104
0.20507812	6.4271293
0.20751953	11.392713
0.20996094	16.561478
0.21240234	21.572836
0.21484375	26.101467
0.21728516	29.816309
0.21972656	32.392715
0.22216797	33.5482
0.22460938	33.08935
0.22705078	30.951063
0.22949219	27.212149
0.2319336	22.08455
0.234375	15.894951
0.2368164	9.138223
0.23925781	3.675846
0.24169922	7.3345037
0.24414062	13.792991
0.24658203	19.649103
0.24902344	24.32039
0.25146484	27.52969
0.25390625	29.174385
0.25634766	29.288517
0.25878906	27.996721
0.26123047	25.475296
0.26367188	21.939085
0.26611328	17.649353
0.2685547	12.92364
0.2709961	8.169463
0.2734375	4.30765
0.2758789	4.609365
0.2783203	8.228262
0.28076172	12.079626
0.28320312	15.423388
0.28564453	17.907425
0.28808594	19.307098
0.29052734	19.569637
0.29296875	18.86902
0.29541016	17.63942
0.29785156	16.586054
0.30029297	16.54657
0.30273438	17.987692
0.30517578	20.560818
0.3076172	23.385908
0.3100586	25.56116
0.3125	26.404583
0.3149414	25.519527
0.3173828	22.787994
0.31982422	18.347235
0.32226562	12.726308
0.32470703	8.167503
0.32714844	10.987494
0.32958984	19.239845
0.33203125	28.482618
0.33447266	37.104557
0.33691406	44.182304
0.33935547	49.180897
0.34179688	51.96538
0.34423828	52.761436
0.3466797	52.034313
0.3491211	50.342564
0.3515625	48.22554
0.3540039	46.1225
0.3564453	44.2726
0.35888672	42.603638
0.36132812	40.725777
0.36376953	38.108086
0.36621094	34.34344
0.36865234	29.341413
0.37109375	23.382744
0.37353516	17.077942
0.37597656	11.334265
0.37841797	7.4197516
0.38085938	6.3048387
0.38330078	6.4632626
0.3857422	6.0517187
0.3881836	5.7317142
0.390625	8.361703
0.3930664	14.102914
0.3955078	21.431316
0.39794922	29.39452
0.40039062	37.3108
0.40283203	44.53368
0.40527344	50.389915
0.40771484	54.276047
0.41015625	55.862274
0.41259766	55.264038
0.41503906	53.02029
0.41748047	49.813313
0.41992188	46.086803
0.42236328	41.916462
0.4248047	37.338272
0.4272461	32.86631
0.4296875	29.630613
0.4321289	28.647575
0.4345703	29.770384
0.43701172	32.0221
0.43945312	34.7722
0.44189453	37.912342
0.44433594	41.21151
0.44677734	43.951443
0.44921875	45.25384
0.45166016	44.635963
0.45410156	42.274647
0.45654297	38.819527
0.45898438	34.898495
0.46142578	30.711662
0.4638672	26.124002
0.4663086	21.194893
0.46875	16.68891
0.4711914	14.134502
0.4736328	14.538582
0.47607422	16.85105
0.47851562	19.542696
0.48095703	21.841692
0.48339844	23.474907
0.48583984	24.558357
0.48828125	25.80035
0.49072266	28.377228
0.49316406	32.984978
0.49560547	39.062008
0.49804688	45.24847
0.5004883	50.199154
0.5029297	52.970074
0.5053711	53.065697
0.5078125	50.370857
0.5102539	45.12348
0.5126953	38.01489
0.5151367	30.454794
0.5175781	24.920717
0.52001953	24.149954
0.52246094	27.792385
0.52490234	32.86375
0.52734375	37.28362
0.52978516	40.32039
0.53222656	41.951485
0.53466797	42.405624
0.5371094	41.91906
0.5395508	40.653618
0.5419922	38.721645
0.5444336	36.26932
0.546875	33.57716
0.5493164	31.101976
0.5517578	29.33458
0.5541992	28.455
0.5566406	28.103495
0.55908203	27.60029
0.56152344	26.381681
0.56396484	24.236917
0.56640625	21.289137
0.56884766	17.897741
0.57128906	14.662544
0.57373047	12.542653
0.5761719	12.578036
0.5786133	14.86989
0.5810547	18.81656
0.5834961	24.204481
0.5859375	31.099535
0.5883789	39.31266
0.5908203	48.26996
0.5932617	57.246166
0.5957031	65.61526
0.59814453	72.90371
0.60058594	78.65727
0.60302734	82.3019
0.60546875	83.18907
0.60791016	80.85364
0.61035156	75.33623
0.61279297	67.3772
0.6152344	58.362026
0.6176758	49.96198
0.6201172	43.46625
0.6225586	39.067936
0.625	35.828026
0.6274414	32.530758
0.6298828	28.522703
0.6323242	23.987434
0.6347656	19.890657
0.63720703	17.586233
0.63964844	17.545782
0.64208984	18.501183
0.64453125	18.802687
0.64697266	17.658905
0.64941406	15.395664
0.65185547	13.544161
0.6542969	14.063139
0.6567383	16.717901
0.6591797	19.345654
0.6616211	20.203365
0.6640625	18.449066
0.6665039	13.990295
0.6689453	7.317852
0.6713867	0.7243749
0.6738281	9.027957
0.67626953	16.69707
0.67871094	22.979177
0.68115234	27.539198
0.68359375	30.6067
0.68603516	33.066555
0.68847656	36.16277
0.69091797	40.625435
0.6933594	45.9749
0.6958008	50.86695
0.6982422	53.969673
0.7006836	54.574337
0.703125	52.74621
0.7055664	49.071518
0.7080078	44.15296
0.7104492	38.182415
0.7128906	30.944164
0.71533203	22.225744
0.71777344	12.248186
0.72021484	3.506253
0.72265625	11.756314
0.72509766	23.90023
0.72753906	37.109406
0.72998047	51.19625
0.7324219	65.286736
0.7348633	77.86771
0.7373047	87.40475
0.7397461	92.99547
0.7421875	94.62795
0.7446289	92.87754
0.7470703	88.275314
0.7495117	80.90402
0.7519531	70.59973
0.75439453	57.488052
0.75683594	42.27378
0.75927734	26.146416
0.76171875	11.931955
0.76416016	14.835176
0.76660156	29.905788
0.76904297	44.68312
0.7714844	56.250343
0.7739258	62.97519
0.7763672	64.5155
0.7788086	62.07506
0.78125	57.88035
0.7836914	53.828606
0.7861328	50.248867
0.7885742	46.16439
0.7910156	40.645313
0.79345703	33.563423
0.79589844	25.38157
0.79833984	16.746943
0.80078125	8.71824
0.80322266	6.0833635
0.80566406	11.547956
0.80810547	17.659319
0.8105469	22.785248
0.8129883	26.427368
0.8154297	27.698734
0.8178711	25.42066
0.8203125	18.853249
0.8227539	8.591135
0.8251953	7.164111
0.8276367	20.744183
0.8300781	34.01628
0.83251953	45.43376
0.83496094	54.751293
0.83740234	61.926517
0.83984375	66.499054
0.84228516	67.75603
0.84472656	65.556435
0.84716797	61.139824
0.8496094	57.331974
0.8520508	57.541832
0.8544922	63.443707
0.8569336	73.93137
0.859375	86.640526
0.8618164	99.1979
0.8642578	109.49345
0.8666992	115.91467
0.8691406	117.71233
0.87158203	115.22298
0.87402344	109.75681
0.87646484	103.13863
0.87890625	97.02718
0.88134766	92.27612
0.88378906	88.72731
0.88623047	85.59134
0.8886719	82.08004
0.8911133	77.82689
0.8935547	72.974144
0.8959961	68.06667
0.8984375	63.907627
0.9008789	61.426765
0.9033203	61.512096
0.9057617	64.709816
0.9082031	70.820175
0.91064453	78.68464
0.91308594	86.43138
0.91552734	92.06542
0.91796875	94.08469
0.92041016	91.822495
0.92285156	85.34816
0.92529297	75.01995
0.9277344	61.099354
0.9301758	43.855637
0.9326172	24.33441
0.9350586	9.836858
0.9375	23.481432
0.9399414	41.57466
0.9423828	56.59686
0.9448242	67.91237
0.9472656	75.97257
0.94970703	81.161446
0.95214844	83.21532
0.95458984	81.444374
0.95703125	75.33833
0.95947266	64.91505
0.96191406	50.673405
0.96435547	33.540176
0.9667969	15.916532
0.9692383	13.998315
0.9716797	30.845184
0.9741211	47.44149
0.9765625	60.979233
0.9790039	71.52026
0.9814453	80.17442
0.9838867	87.85714
0.9863281	94.36314
0.98876953	98.573456
0.99121094	99.45859
0.99365234	96.88891
0.99609375	91.75985
0.99853516	85.5151
1.0009766	79.41889
1.003418	74.01431
1.0058594	69.089005
1.0083008	64.08116
1.0107422	58.55166
1.0131836	52.452545
1.015625	46.19502
1.0180664	40.654877
1.0205078	37.1664
1.0229492	37.159492
1.0253906	41.07965
1.027832	47.815273
1.0302734	55.561256
1.0327148	62.726616
1.0351562	68.26961
1.0375977	71.74455
1.0400391	73.20534
1.0424805	73.0273
1.0449219	71.768
1.0473633	70.108894
1.0498047	68.72763
1.0522461	67.92396
1.0546875	67.20543
1.0571289	65.36285
1.0595703	61.13708
1.0620117	53.94453
1.0644531	44.192204
1.0668945	33.100864
1.0693359	22.239273
1.0717773	13.2088
1.0742188	8.349471
1.0766602	9.704189
1.0791016	13.288854
1.081543	16.299185
1.0839844	18.289574
1.0864258	19.589485
1.0888672	20.64375
1.0913086	21.566078
1.09375	22.309454
1.0961914	23.291012
1.0986328	25.531122
1.1010742	29.81497
1.1035156	35.999752
1.105957	43.465527
1.1083984	51.680515
1.1108398	60.20078
1.1132812	68.51143
1.1157227	76.103134
1.1181641	82.72767
1.1206055	88.536125
1.1230469	93.9188
1.1254883	99.1687
1.1279297	104.27077
1.1303711	108.97256
1.1328125	112.99664
1.1352539	116.17365
1.1376953	118.43948
1.1401367	119.7803
1.1425781	120.1945
1.1450195	119.63657
1.1474609	117.90333
1.1499023	114.53271
1.1523438	108.87114
1.1547852	100.37357
1.1572266	88.98948
1.159668	75.382545
1.1621094	60.80709
1.1645508	46.631336
1.1669922	33.702106
1.1694336	21.941826
1.171875	10.560027
1.1743164	1.5186689
1.1767578	13.945453
1.1791992	26.886381
1.1816406	39.216488
1.184082	49.67394
1.1865234	57.122646
1.1889648	61.050213
1.1914062	61.887024
1.1938477	60.756287
1.1962891	58.53923
1.1987305	54.996426
1.2011719	49.081486
1.2036133	40.456764
1.2060547	31.434906
1.2084961	28.567007
1.2109375	35.93471
1.2133789	48.006382
1.2158203	60.07085
1.2182617	70.92542
1.2207031	80.9561
1.2231445	90.77184
1.2255859	100.50298
1.2280273	109.6832
1.2304688	117.4574
1.2329102	122.9492
1.2353516	125.75179
1.237793	126.35074
1.2402344	126.05874
1.2426758	126.18016
1.2451172	126.88824
1.2475586	126.9584
1.25	124.7267
1.2524414	119.32906
1.2548828	111.23874
1.2573242	101.90259
1.2597656	92.809654
1.262207	84.60062
1.2646484	76.85721
1.2670898	68.65424
1.2695312	59.28995
1.2719727	48.693535
1.2744141	37.53055
1.2768555	27.235361
1.2792969	20.169052
1.2817383	19.053185
1.2841797	23.712288
1.2866211	31.848337
1.2890625	41.92895
1.2915039	52.38223
1.2939453	61.332233
1.2963867	67.365875
1.2988281	70.38269
1.3012695	71.868706
1.3037109	74.111435
1.3061523	78.53616
1.3085938	84.759155
1.3110352	91.43308
1.3134766	97.51799
1.315918	102.65083
1.3183594	106.85487
1.3208008	110.27992
1.3232422	113.17685
1.3256836	115.82858
1.328125	118.27362
1.3305664	120.10835
1.3330078	120.69608
1.3354492	119.62648
1.3378906	116.98886
1.340332	113.2702
1.3427734	109.06419
1.3452148	104.86926
1.3476562	101.00333
1.3500977	97.49352
1.3525391	93.979164
1.3549805	89.865395
1.3574219	84.75965
1.3598633	78.85836
1.3623047	72.9512
1.3647461	67.9905
1.3671875	64.513985
1.3696289	62.391403
1.3720703	61.133183
1.3745117	60.427277
1.3769531	60.39086
1.3793945	61.29196
1.3818359	62.973904
1.3842773	64.60398
1.3867188	65.07857
1.3891602	63.665913
1.3916016	60.321266
1.394043	55.48303
1.3964844	49.58984
1.3989258	42.76074
1.4013672	34.937027
1.4038086	26.299828
1.40625	17.630846
1.4086914	10.967551
1.4111328	10.651906
1.4135742	15.706712
1.4160156	21.435883
1.418457	26.227272
1.4208984	29.708103
1.4233398	32.187374
1.4257812	34.499275
1.4282227	37.450317
1.4306641	41.20575
1.4331055	45.422688
1.4355469	49.980484
1.4379883	55.33732
1.4404297	62.032864
1.4428711	69.88117
1.4453125	77.82819
1.4477539	84.601204
1.4501953	89.45124
1.4526367	92.43533
1.4550781	94.11879
1.4575195	94.94966
1.4599609	94.854454
1.4624023	93.43919
1.4648438	90.557205
1.4672852	86.65116
1.4697266	82.52238
1.472168	78.71299
1.4746094	75.13401
1.4770508	71.39023
1.4794922	67.477486
1.4819336	64.078186
1.484375	62.018787
1.4868164	61.337982
1.4892578	61.140244
1.4916992	60.622253
1.4941406	60.185577
1.496582	61.453934
1.4990234	65.82447
1.5014648	72.94537
1.5039062	81.15453
1.5063477	89.0243
1.5087891	96.128174
1.5112305	102.72771
1.5136719	108.96825
1.5161133	114.29018
1.5185547	117.45305
1.5209961	117.03197
1.5234375	112.00581
1.5258789	102.20577
1.5283203	88.51563
1.5307617	72.747765
1.5332031	57.22483
1.5356445	44.52021
1.5380859	38.1679
1.5405273	42.17445
1.5429688	55.667347
1.5454102	73.75408
1.5478516	92.094246
1.550293	107.7376
1.5527344	119.19602
1.5551758	126.30549
1.5576172	129.60417
1.5600586	129.52275
1.5625	125.99281
1.5649414	118.74093
1.5673828	107.86529
1.5698242	94.12092
1.5722656	78.7215
1.574707	62.9022
1.5771484	47.6155
1.5795898	33.496464
1.5820312	20.914429
1.5844727	10.138112
1.5869141	6.127007
1.5893555	15.326321
1.5917969	27.045464
1.5942383	38.733536
1.5966797	48.67299
1.5991211	55.403427
1.6015625	58.27964
1.6040039	57.74603
1.6064453	55.168594
1.6088867	52.310825
1.6113281	50.73141
1.6137695	51.443287
1.6162109	54.854546
1.6186523	60.73694
1.6210938	68.27317
1.6235352	76.39156
1.6259766	84.24663
1.628418	91.51432
1.6308594	98.33993
1.6333008	104.96339
1.6357422	111.24664
1.6381836	116.42307
1.640625	119.25616
1.6430664	118.50633
1.6455078	113.45046
1.6479492	104.26126
1.6503906	92.15836
1.652832	79.28865
1.6552734	68.24355
1.6577148	61.05241
1.6601562	58.04911
1.6625977	58.087868
1.6650391	60.174503
1.6674805	64.28405
1.6699219	70.568954
1.6723633	78.3181
1.6748047	85.91762
1.6772461	91.58038
1.6796875	94.03739
1.6821289	92.88442
1.6845703	88.5954
1.6870117	82.20744
1.6894531	74.704735
1.6918945	66.37058
1.6943359	56.666
1.6967773	45.02368
1.6992188	32.63412
1.7016602	26.269596
1.7041016	34.97294
1.706543	52.12308
1.7089844	69.821396
1.7114258	84.64921
1.7138672	95.11371
1.7163086	100.87291
1.71875	102.42854
1.7211914	100.73631
1.7236328	96.65437
1.7260742	90.46036
1.7285156	81.83485
1.730957	70.41932
1.7333984	56.582474
1.7358398	42.11809
1.7382812	31.287891
1.7407227	30.751516
1.7431641	40.4492
1.7456055	54.125645
1.7480469	68.28127
1.7504883	81.20579
1.7529297	91.62593
1.7553711	98.626076
1.7578125	101.9053
1.7602539	101.85315
1.7626953	99.31132
1.7651367	95.12969
1.7675781	89.765434
1.7700195	83.16639
1.7724609	75.02946
1.7749023	65.30426
1.7773438	54.738667
1.7797852	45.266518
1.7822266	39.683968
1.784668	39.479073
1.7871094	42.993362
1.7895508	48.014565
1.7919922	54.303154
1.7944336	62.88375
1.796875	74.072266
1.7993164	86.66104
1.8017578	98.782684
1.8041992	109.1208
1.8066406	117.5135
1.809082	124.74089
1.8115234	131.62317
1.8139648	138.04366
1.8164062	142.739
1.8188477	144.06786
1.8212891	141.12285
1.8237305	134.44728
1.8261719	125.92159
1.8286133	117.69524
1.8310547	110.66174
1.8334961	103.8924
1.8359375	95.90802
1.8383789	86.673744
1.8408203	78.52356
1.8432617	74.71376
1.8457031	75.817184
1.8481445	78.54973
1.8505859	79.10513
1.8530273	75.94776
1.8554688	69.95781
1.8579102	62.981277
1.8603516	55.89092
1.862793	47.755405
1.8652344	37.025387
1.8676758	23.318079
1.8701172	9.482421
1.8725586	14.114723
1.875	28.503424
1.8774414	41.030075
1.8798828	50.363514
1.8823242	56.270214
1.8847656	58.877045
1.887207	58.68704
1.8896484	56.69648
1.8920898	54.024044
1.8945312	51.03883
1.8969727	47.04447
1.8994141	41.378754
1.9018555	35.157944
1.9042969	31.990833
1.9067383	34.498165
1.9091797	39.83747
1.9116211	43.76429
1.9140625	44.502186
1.9165039	42.677998
1.9189453	40.235577
1.9213867	39.131035
1.9238281	40.38406
1.9262695	44.08367
1.9287109	49.81533
1.9311523	56.868866
1.9335938	64.49329
1.9360352	72.179306
1.9384766	79.61698
1.940918	86.44052
1.9433594	92.21932
1.9458008	96.78307
1.9482422	100.38232
1.9506836	103.24887
1.953125	104.89568
1.9555664	104.07058
1.9580078	99.65954
1.9604492	91.842285
1.9628906	82.592476
1.965332	74.904564
1.9677734	70.692215
1.9702148	69.20018
1.9726562	68.29362
1.9750977	66.80556
1.9775391	65.016396
1.9799805	63.468533
1.9824219	61.860996
1.9848633	59.244133
1.9873047	55.013275
1.9897461	49.475925
1.9921875	43.648964
1.9946289	38.71746
1.9970703	35.68374
1.9995117	35.281696
2.0019531	37.678623
2.0043945	42.11398
2.006836	47.226143
2.0092773	51.70586
2.0117188	54.597664
2.0141602	55.27093
2.0166016	53.355625
2.019043	48.86377
2.0214844	42.5106
2.0239258	36.047607
2.0263672	32.059486
2.0288086	32.22706
2.03125	35.694767
2.0336914	41.070976
2.0361328	48.319046
2.0385742	57.730442
2.0410156	68.39378
2.043457	78.23189
2.0458984	85.14828
2.0483398	88.108055
2.0507812	87.66209
2.0532227	85.67167
2.055664	84.07402
2.0581055	83.2782
2.0605469	81.82078
2.0629883	77.88871
2.0654297	71.30972
2.067871	64.72125
2.0703125	62.740402
2.072754	67.59047
2.0751953	76.21378
2.0776367	84.191795
2.0800781	89.41721
2.0825195	92.42172
2.084961	95.09132
2.0874023	98.878845
2.0898438	103.77858
2.0922852	108.81056
2.0947266	113.04936
2.097168	115.99861
2.0996094	117.31166
2.1020508	116.5229
2.1044922	113.17912
2.1069336	107.22068
2.109375	99.22972
2.1118164	90.3394
2.1142578	81.84935
2.1166992	74.71032
2.1191406	69.15373
2.121582	64.69431
2.1240234	60.491432
2.1264648	55.790974
2.1289062	50.21855
2.1313477	43.919804
2.133789	37.555794
2.1362305	32.02757
2.1386719	27.781534
2.1411133	24.180515
2.1435547	19.964407
2.145996	14.658858
2.1484375	10.51448
2.150879	12.903662
2.1533203	19.567833
2.1557617	25.89326
2.1582031	30.5282
2.1606445	33.927387
2.163086	37.36491
2.1655273	41.670734
2.1679688	46.45429
2.1704102	50.614597
2.1728516	53.272095
2.175293	54.166756
2.1777344	53.45766
2.1801758	51.27703
2.1826172	47.4833
2.1850586	41.838165
2.1875	34.430122
2.1899414	25.998638
2.1923828	18.069723
2.1948242	13.234376
2.1972656	14.102833
2.199707	19.204132
2.2021484	26.21239
2.2045898	34.096603
2.2070312	41.876923
2.2094727	48.427044
2.211914	52.810745
2.2143555	54.535294
2.2167969	53.589428
2.2192383	50.327736
2.2216797	45.297367
2.224121	39.05288
2.2265625	31.959484
2.229004	24.045687
2.2314453	15.053401
2.2338867	4.839292
2.2363281	7.2883415
2.2387695	19.593987
2.241211	31.80376
2.2436523	42.97342
2.2460938	52.594833
2.2485352	60.670414
2.2509766	67.53025
2.253418	73.47145
2.2558594	78.50824
2.2583008	82.430626
2.2607422	85.077705
2.2631836	86.5368
2.265625	87.105896
2.2680664	87.057816
2.2705078	86.43353
2.2729492	85.05416
2.2753906	82.73231
2.277832	79.47851
2.2802734	75.530304
2.2827148	71.207565
2.2851562	66.750206
2.2875977	62.262764
2.290039	57.744415
2.2924805	53.102333
2.2949219	48.14797
2.2973633	42.72417
2.2998047	37.034523
2.302246	31.9722
2.3046875	28.95176
2.307129	28.674728
2.3095703	30.10077
2.3120117	31.586119
2.3144531	32.364338
2.3168945	32.696934
2.319336	33.153835
2.3217773	33.7752
2.3242188	33.903465
2.3266602	32.759182
2.3291016	30.043287
2.331543	26.142433
2.3339844	21.99179
2.3364258	18.727915
2.3388672	17.21787
2.3413086	17.730688
2.34375	20.08173
2.3461914	23.834587
2.3486328	28.24942
2.3510742	32.3989
2.3535156	35.519733
2.355957	37.36562
2.3583984	38.306404
2.3608398	38.99129
2.3632812	39.653553
2.3657227	39.701813
2.368164	38.12235
2.3706055	34.328773
2.3730469	28.835236
2.3754883	23.562922
2.3779297	21.295053
2.380371	23.03165
2.3828125	27.053064
2.385254	32.156593
2.3876953	38.35796
2.3901367	45.437588
2.3925781	52.304024
2.3950195	57.644764
2.397461	60.841393
2.3999023	62.36632
2.4023438	63.361584
2.4047852	64.54996
2.4072266	65.43168
2.409668	64.684074
2.4121094	61.306618
2.4145508	55.447685
2.4169922	48.44059
2.4194336	42.002296
2.421875	36.856842
2.4243164	32.033325
2.4267578	25.935255
2.4291992	17.880936
2.4316406	8.819614
2.434082	5.222416
2.4365234	11.822151
2.4389648	17.655302
2.4414062	21.430828
2.4438477	23.86657
2.446289	25.838745
2.4487305	27.475712
2.4511719	28.19926
2.4536133	27.488201
2.4560547	25.44742
2.458496	22.856031
2.4609375	20.866898
2.463379	20.551844
2.4658203	22.398798
