
X-Axis: Frequency (hz)
Y-Axis: Fourier Amplitude (cm/s)
Number of Data Sets: 4


DATASET #1

Name: FAS H1 (cm/s)
Num Points: 2044
Info: 

X, Y Data:
0.009765625	0.27488762
0.012207031	0.34747705
0.014648438	0.37674254
0.017089844	0.34687844
0.01953125	0.2607005
0.021972656	0.31620008
0.024414062	0.7015101
0.026855469	1.2743509
0.029296875	1.9664978
0.03173828	2.736427
0.034179688	3.5346222
0.036621094	4.2909184
0.0390625	4.9227533
0.041503906	5.3611317
0.043945312	5.5752807
0.04638672	5.5756054
0.048828125	5.3969183
0.05126953	5.079689
0.053710938	4.65561
0.056152344	4.1421814
0.05859375	3.560817
0.061035156	2.9728653
0.06347656	2.5009565
0.06591797	2.2850165
0.068359375	2.354316
0.07080078	2.6219409
0.07324219	3.0344758
0.075683594	3.5764058
0.078125	4.2001233
0.080566406	4.866329
0.08300781	5.623066
0.08544922	6.577794
0.087890625	7.770043
0.09033203	9.109929
0.09277344	10.459447
0.095214844	11.748914
0.09765625	13.014336
0.10009766	14.329068
0.10253906	15.687859
0.10498047	16.940447
0.10742188	17.831667
0.10986328	18.144394
0.11230469	17.919659
0.11474609	17.683968
0.1171875	18.39119
0.11962891	20.642725
0.12207031	23.890316
0.12451172	26.843773
0.12695312	28.33713
0.12939453	27.840693
0.13183594	25.64473
0.13427734	22.732069
0.13671875	20.333933
0.13916016	19.441162
0.14160156	20.716452
0.14404297	24.400837
0.14648438	29.764027
0.14892578	35.169758
0.15136719	38.885777
0.1538086	39.83182
0.15625	37.924904
0.1586914	33.96246
0.16113281	29.142548
0.16357422	24.479818
0.16601562	20.450994
0.16845703	17.061932
0.17089844	14.153108
0.17333984	11.602111
0.17578125	9.389577
0.17822266	7.766427
0.18066406	7.4947395
0.18310547	9.072636
0.18554688	11.636556
0.18798828	13.863737
0.19042969	14.689165
0.1928711	13.457361
0.1953125	10.064304
0.1977539	5.4330835
0.20019531	5.409199
0.20263672	11.346902
0.20507812	17.032162
0.20751953	20.555737
0.20996094	21.052479
0.21240234	18.48728
0.21484375	13.677035
0.21728516	8.037588
0.21972656	3.072379
0.22216797	0.22558326
0.22460938	1.9406339
0.22705078	3.7354538
0.22949219	7.14157
0.2319336	11.96496
0.234375	17.263357
0.2368164	21.664307
0.23925781	23.649994
0.24169922	22.216717
0.24414062	17.540955
0.24658203	11.29429
0.24902344	7.0723453
0.25146484	8.992296
0.25390625	14.554675
0.25634766	22.351858
0.25878906	31.539095
0.26123047	40.070213
0.26367188	45.896366
0.26611328	47.982162
0.2685547	46.405685
0.2709961	41.834743
0.2734375	35.117153
0.2758789	27.503885
0.2783203	21.186573
0.28076172	18.728956
0.28320312	20.10242
0.28564453	22.969568
0.28808594	25.82588
0.29052734	27.460054
0.29296875	26.246597
0.29541016	21.112803
0.29785156	13.427062
0.30029297	12.08025
0.30273438	21.349327
0.30517578	30.645761
0.3076172	35.454983
0.3100586	34.27535
0.3125	27.39811
0.3149414	17.213442
0.3173828	12.093433
0.31982422	19.792866
0.32226562	27.856152
0.32470703	29.770447
0.32714844	23.530306
0.32958984	9.886229
0.33203125	9.053927
0.33447266	26.688803
0.33691406	38.74019
0.33935547	40.90835
0.34179688	31.682987
0.34423828	13.02558
0.3466797	11.825286
0.3491211	33.98736
0.3515625	49.0482
0.3540039	53.091988
0.3564453	46.18594
0.35888672	32.960304
0.36132812	23.585974
0.36376953	26.03784
0.36621094	29.773186
0.36865234	26.36206
0.37109375	15.309449
0.37353516	1.2984623
0.37597656	15.527218
0.37841797	26.636063
0.38085938	31.69631
0.38330078	31.443481
0.3857422	29.003674
0.3881836	27.84206
0.390625	28.42622
0.3930664	29.034008
0.3955078	29.939335
0.39794922	33.543762
0.40039062	39.816925
0.40283203	45.214413
0.40527344	46.337315
0.40771484	42.185413
0.41015625	34.52108
0.41259766	27.479183
0.41503906	25.79552
0.41748047	29.37481
0.41992188	33.681213
0.42236328	35.606728
0.4248047	34.375786
0.4272461	30.51215
0.4296875	24.24506
0.4321289	14.800072
0.4345703	5.881529
0.43701172	18.841503
0.43945312	34.6542
0.44189453	44.921955
0.44433594	45.86171
0.44677734	36.998894
0.44921875	22.589048
0.45166016	18.412302
0.45410156	32.073578
0.45654297	45.0877
0.45898438	51.360806
0.46142578	50.37562
0.4638672	44.06328
0.4663086	35.349705
0.46875	26.814615
0.4711914	20.976099
0.4736328	21.766752
0.47607422	28.57165
0.47851562	35.1562
0.48095703	36.866016
0.48339844	32.136024
0.48583984	22.423117
0.48828125	12.082226
0.49072266	9.527274
0.49316406	13.206853
0.49560547	14.745982
0.49804688	15.308237
0.5004883	18.3948
0.5029297	22.499971
0.5053711	23.504042
0.5078125	19.333126
0.5102539	10.834612
0.5126953	1.5553464
0.5151367	6.091228
0.5175781	7.4644732
0.52001953	5.35115
0.52246094	12.829582
0.52490234	24.63017
0.52734375	33.78774
0.52978516	37.17598
0.53222656	34.84913
0.53466797	29.72964
0.5371094	24.646784
0.5395508	18.651121
0.5419922	10.523729
0.5444336	14.232685
0.546875	29.395958
0.5493164	41.97984
0.5517578	46.978252
0.5541992	43.511673
0.5566406	34.02476
0.55908203	22.4155
0.56152344	12.320636
0.56396484	8.880468
0.56640625	12.467261
0.56884766	14.399626
0.57128906	13.021595
0.57373047	15.673382
0.5761719	26.742075
0.5786133	38.96832
0.5810547	46.489742
0.5834961	46.057
0.5859375	37.009235
0.5883789	21.680527
0.5908203	9.472219
0.5932617	19.746353
0.5957031	30.889904
0.59814453	35.81981
0.60058594	34.979652
0.60302734	30.497019
0.60546875	24.375965
0.60791016	17.485434
0.61035156	9.641312
0.61279297	0.67275715
0.6152344	8.756536
0.6176758	16.406925
0.6201172	20.32772
0.6225586	20.615147
0.625	20.78457
0.6274414	23.914295
0.6298828	27.276077
0.6323242	27.22778
0.6347656	24.14337
0.63720703	23.403515
0.63964844	29.913137
0.64208984	40.641663
0.64453125	51.20985
0.64697266	58.885937
0.64941406	61.706383
0.65185547	58.67449
0.6542969	50.959484
0.6567383	42.901073
0.6591797	39.71401
0.6616211	40.315968
0.6640625	38.429905
0.6665039	30.728128
0.6689453	18.797832
0.6713867	9.853724
0.6738281	14.385571
0.67626953	20.829443
0.67871094	24.793085
0.68115234	28.956802
0.68359375	35.615334
0.68603516	43.859497
0.68847656	52.06825
0.69091797	59.443066
0.6933594	64.85058
0.6958008	66.541626
0.6982422	64.05052
0.7006836	59.57296
0.703125	55.93597
0.7055664	52.906143
0.7080078	48.220753
0.7104492	42.18891
0.7128906	38.472755
0.71533203	38.4549
0.71777344	37.600754
0.72021484	31.21811
0.72265625	19.860977
0.72509766	15.969349
0.72753906	26.724436
0.72998047	34.836582
0.7324219	34.61308
0.7348633	28.614492
0.7373047	24.50304
0.7397461	26.85124
0.7421875	30.920057
0.7446289	32.828373
0.7470703	31.818329
0.7495117	27.357119
0.7519531	18.668467
0.75439453	9.602825
0.75683594	18.807617
0.75927734	32.840195
0.76171875	40.243073
0.76416016	38.745872
0.76660156	33.014633
0.76904297	32.589886
0.7714844	39.011513
0.7739258	45.655533
0.7763672	50.205524
0.7788086	53.900665
0.78125	57.108807
0.7836914	57.566917
0.7861328	51.98264
0.7885742	38.70688
0.7910156	19.585213
0.79345703	7.7335277
0.79589844	22.653322
0.79833984	32.78329
0.80078125	34.523525
0.80322266	30.753313
0.80566406	27.655102
0.80810547	28.706568
0.8105469	30.47977
0.8129883	30.082338
0.8154297	28.750978
0.8178711	28.682177
0.8203125	29.634434
0.8227539	30.205517
0.8251953	30.12097
0.8276367	30.213644
0.8300781	32.304974
0.83251953	38.837536
0.83496094	50.174046
0.83740234	63.37711
0.83984375	74.06293
0.84228516	78.39085
0.84472656	74.79696
0.84716797	65.228165
0.8496094	54.41506
0.8520508	45.620193
0.8544922	36.73743
0.8569336	24.39911
0.859375	10.33119
0.8618164	8.692411
0.8642578	14.938896
0.8666992	16.108524
0.8691406	15.525058
0.87158203	16.501833
0.87402344	17.843
0.87646484	21.210459
0.87890625	29.033052
0.88134766	38.087646
0.88378906	44.651638
0.88623047	47.442875
0.8886719	46.253597
0.8911133	40.772778
0.8935547	31.494791
0.8959961	21.332785
0.8984375	15.548758
0.9008789	14.98833
0.9033203	14.807931
0.9057617	16.866905
0.9082031	22.819883
0.91064453	26.59111
0.91308594	23.137049
0.91552734	12.746631
0.91796875	9.397894
0.92041016	21.16202
0.92285156	28.642345
0.92529297	28.333014
0.9277344	21.432898
0.9301758	11.968813
0.9326172	10.293946
0.9350586	19.412405
0.9375	29.722923
0.9399414	39.00103
0.9423828	45.540245
0.9448242	47.2006
0.9472656	42.821693
0.94970703	33.581512
0.95214844	24.121134
0.95458984	22.90898
0.95703125	30.160892
0.95947266	37.57141
0.96191406	41.74261
0.96435547	42.819466
0.9667969	41.515358
0.9692383	38.07157
0.9716797	33.217865
0.9741211	28.17973
0.9765625	22.954628
0.9790039	17.321024
0.9814453	14.859712
0.9838867	18.19991
0.9863281	21.531122
0.98876953	21.05285
0.99121094	17.183895
0.99365234	12.178358
0.99609375	8.806569
0.99853516	11.165313
1.0009766	18.774818
1.003418	27.826845
1.0058594	35.45423
1.0083008	39.666473
1.0107422	39.84195
1.0131836	36.937626
1.015625	32.873657
1.0180664	29.35184
1.0205078	27.224306
1.0229492	26.777868
1.0253906	27.643108
1.027832	28.565926
1.0302734	28.15505
1.0327148	25.74981
1.0351562	21.742376
1.0375977	17.392847
1.0400391	14.085078
1.0424805	12.558807
1.0449219	12.993553
1.0473633	15.324457
1.0498047	19.426208
1.0522461	24.835546
1.0546875	30.042065
1.0571289	33.026676
1.0595703	32.559654
1.0620117	28.930973
1.0644531	24.284296
1.0668945	22.274506
1.0693359	23.754736
1.0717773	24.664392
1.0742188	22.27259
1.0766602	18.991415
1.0791016	21.601604
1.081543	30.612223
1.0839844	40.754066
1.0864258	48.605846
1.0888672	52.3593
1.0913086	51.632122
1.09375	47.76244
1.0961914	43.214714
1.0986328	39.658962
1.1010742	36.684975
1.1035156	33.256042
1.105957	29.504314
1.1083984	26.380682
1.1108398	24.159132
1.1132812	21.708313
1.1157227	17.438198
1.1181641	11.0112
1.1206055	4.433017
1.1230469	3.2392817
1.1254883	3.7606702
1.1279297	3.7976024
1.1303711	9.047436
1.1328125	15.018579
1.1352539	18.487288
1.1376953	18.143614
1.1401367	14.010293
1.1425781	8.228635
1.1450195	10.140002
1.1474609	18.945778
1.1499023	26.980259
1.1523438	32.540573
1.1547852	36.323196
1.1572266	39.75818
1.159668	43.51741
1.1621094	47.316906
1.1645508	50.479725
1.1669922	52.062706
1.1694336	50.747154
1.171875	45.121185
1.1743164	34.354965
1.1767578	18.912766
1.1791992	3.846056
1.1816406	18.933502
1.184082	33.8325
1.1865234	43.05818
1.1889648	46.00356
1.1914062	44.138157
1.1938477	40.117447
1.1962891	36.195766
1.1987305	32.673676
1.2011719	28.121452
1.2036133	21.470947
1.2060547	13.801259
1.2084961	9.253099
1.2109375	10.396265
1.2133789	11.442135
1.2158203	9.787925
1.2182617	8.502029
1.2207031	13.973781
1.2231445	23.702353
1.2255859	33.69725
1.2280273	41.31115
1.2304688	44.4737
1.2329102	42.050274
1.2353516	34.18049
1.237793	22.221878
1.2402344	9.075562
1.2426758	8.908849
1.2451172	18.566921
1.2475586	24.346191
1.25	25.648748
1.2524414	24.214842
1.2548828	22.411444
1.2573242	21.95137
1.2597656	23.424417
1.262207	26.548542
1.2646484	30.415981
1.2670898	33.670467
1.2695312	35.191696
1.2719727	35.324863
1.2744141	36.618103
1.2768555	41.57581
1.2792969	48.63034
1.2817383	53.329903
1.2841797	52.08078
1.2866211	43.83465
1.2890625	30.148012
1.2915039	14.301456
1.2939453	0.32251218
1.2963867	10.395666
1.2988281	15.52071
1.3012695	15.804095
1.3037109	13.200891
1.3061523	13.879439
1.3085938	22.64279
1.3110352	35.04238
1.3134766	47.70721
1.315918	59.25953
1.3183594	68.61578
1.3208008	74.1545
1.3232422	74.23745
1.3256836	68.16521
1.328125	56.33751
1.3305664	39.686527
1.3330078	19.556797
1.3354492	6.7274084
1.3378906	25.802834
1.340332	42.576317
1.3427734	52.82352
1.3452148	56.1806
1.3476562	53.990643
1.3500977	48.079155
1.3525391	40.099155
1.3549805	32.017826
1.3574219	26.868519
1.3598633	26.701115
1.3623047	29.136393
1.3647461	30.93627
1.3671875	31.56084
1.3696289	32.32183
1.3720703	34.046684
1.3745117	35.631237
1.3769531	34.959393
1.3793945	30.530624
1.3818359	22.475874
1.3842773	13.907443
1.3867188	13.497478
1.3891602	20.01327
1.3916016	24.230148
1.394043	23.904732
1.3964844	21.339333
1.3989258	22.376669
1.4013672	29.507645
1.4038086	38.51447
1.40625	45.53741
1.4086914	48.763752
1.4111328	47.83186
1.4135742	43.35394
1.4160156	36.56894
1.418457	29.238894
1.4208984	23.7563
1.4233398	22.204212
1.4257812	23.606533
1.4282227	24.90666
1.4306641	24.336782
1.4331055	21.906832
1.4355469	18.688461
1.4379883	16.225283
1.4404297	15.672997
1.4428711	16.470078
1.4453125	17.23535
1.4477539	17.941591
1.4501953	19.827253
1.4526367	23.18383
1.4550781	27.023815
1.4575195	31.151804
1.4599609	36.77327
1.4624023	44.713627
1.4648438	53.73266
1.4672852	61.074333
1.4697266	63.9413
1.472168	60.58293
1.4746094	50.83244
1.4770508	36.154583
1.4794922	19.327257
1.4819336	4.537408
1.484375	9.141058
1.4868164	14.860623
1.4892578	16.067635
1.4916992	18.069784
1.4941406	26.135235
1.496582	37.577587
1.4990234	47.808556
1.5014648	53.777042
1.5039062	54.009327
1.5063477	48.650375
1.5087891	39.72453
1.5112305	31.668222
1.5136719	30.059275
1.5161133	34.360046
1.5185547	38.55871
1.5209961	39.062565
1.5234375	35.510197
1.5258789	29.557749
1.5283203	23.900581
1.5307617	21.1939
1.5332031	22.41335
1.5356445	26.132235
1.5380859	29.863123
1.5405273	31.251331
1.5429688	28.96373
1.5454102	23.62647
1.5478516	19.033415
1.550293	20.828194
1.5527344	26.989302
1.5551758	31.570951
1.5576172	31.805351
1.5600586	27.75104
1.5625	21.670477
1.5649414	17.752438
1.5673828	19.053024
1.5698242	22.687172
1.5722656	25.042452
1.574707	25.077467
1.5771484	23.446644
1.5795898	21.549484
1.5820312	20.71619
1.5844727	21.46265
1.5869141	23.107452
1.5893555	24.17464
1.5917969	23.101522
1.5942383	18.751005
1.5966797	10.865399
1.5991211	4.574234
1.6015625	15.667396
1.6040039	28.272612
1.6064453	37.747356
1.6088867	41.706173
1.6113281	39.212482
1.6137695	31.257837
1.6162109	21.177618
1.6186523	15.744274
1.6210938	18.74403
1.6235352	22.068214
1.6259766	20.728994
1.628418	14.669106
1.6308594	6.91322
1.6333008	7.151743
1.6357422	13.360477
1.6381836	17.973593
1.640625	20.664898
1.6430664	22.077509
1.6455078	22.749462
1.6479492	22.985012
1.6503906	23.077494
1.652832	23.481955
1.6552734	24.731865
1.6577148	27.2006
1.6601562	30.896854
1.6625977	35.237476
1.6650391	38.95102
1.6674805	40.622486
1.6699219	39.86657
1.6723633	38.31294
1.6748047	38.79143
1.6772461	42.001926
1.6796875	45.387657
1.6821289	46.179825
1.6845703	43.468185
1.6870117	38.291317
1.6894531	33.22998
1.6918945	31.642138
1.6943359	35.103374
1.6967773	41.803513
1.6992188	49.145363
1.7016602	55.374622
1.7041016	59.336643
1.706543	60.230442
1.7089844	57.756313
1.7114258	52.35134
1.7138672	45.185738
1.7163086	37.83381
1.71875	31.665405
1.7211914	27.219105
1.7236328	24.18689
1.7260742	22.180578
1.7285156	21.201557
1.730957	21.189835
1.7333984	21.652096
1.7358398	21.953262
1.7382812	21.528816
1.7407227	19.99042
1.7431641	17.769411
1.7456055	16.918308
1.7480469	19.518394
1.7504883	24.45985
1.7529297	29.541391
1.7553711	33.826458
1.7578125	37.3283
1.7602539	40.108326
1.7626953	41.82676
1.7651367	41.935986
1.7675781	40.00403
1.7700195	35.787624
1.7724609	29.2883
1.7749023	21.10171
1.7773438	12.771305
1.7797852	7.215699
1.7822266	7.9752297
1.784668	11.384401
1.7871094	14.36131
1.7895508	16.256945
1.7919922	16.629694
1.7944336	15.163051
1.796875	12.144972
1.7993164	8.836401
1.8017578	6.979088
1.8041992	6.673638
1.8066406	6.3148746
1.809082	5.2283993
1.8115234	3.960154
1.8139648	3.9554665
1.8164062	5.491995
1.8188477	7.2739472
1.8212891	8.6221
1.8237305	9.443144
1.8261719	10.047318
1.8286133	11.11004
1.8310547	13.248793
1.8334961	16.297722
1.8359375	19.324541
1.8383789	21.157688
1.8408203	20.75618
1.8432617	17.540422
1.8457031	11.855678
1.8481445	6.6958756
1.8505859	10.927732
1.8530273	20.175362
1.8554688	29.979921
1.8579102	39.011425
1.8603516	45.824898
1.862793	48.731293
1.8652344	46.489544
1.8676758	39.24037
1.8701172	29.36469
1.8725586	22.161821
1.875	22.470047
1.8774414	26.046259
1.8798828	27.16424
1.8823242	24.44354
1.8847656	19.025585
1.887207	12.943511
1.8896484	8.035694
1.8920898	5.2078953
1.8945312	3.9833128
1.8969727	3.391365
1.8994141	3.488069
1.9018555	4.8805256
1.9042969	7.7510214
1.9067383	11.785578
1.9091797	16.070738
1.9116211	19.802319
1.9140625	23.644285
1.9165039	29.705923
1.9189453	38.66851
1.9213867	48.284004
1.9238281	55.22435
1.9262695	56.910984
1.9287109	52.375736
1.9311523	42.465187
1.9335938	29.534018
1.9360352	17.007406
1.9384766	9.9908905
1.940918	11.333306
1.9433594	13.47634
1.9458008	13.981009
1.9482422	15.073673
1.9506836	18.440365
1.953125	22.748438
1.9555664	26.015688
1.9580078	27.150541
1.9604492	25.885584
1.9628906	22.442238
1.965332	17.242624
1.9677734	10.776132
1.9702148	3.6767156
1.9726562	3.9069507
1.9750977	10.363885
1.9775391	15.657553
1.9799805	19.668415
1.9824219	22.745068
1.9848633	25.098158
1.9873047	26.455225
1.9897461	26.390562
1.9921875	24.762829
1.9946289	21.81321
1.9970703	18.238213
1.9995117	15.533921
2.0019531	15.657567
2.0043945	18.866825
2.006836	24.033903
2.0092773	30.544916
2.0117188	37.556747
2.0141602	43.30328
2.0166016	45.87374
2.019043	44.31876
2.0214844	39.159855
2.0239258	32.34008
2.0263672	27.045591
2.0288086	26.550766
2.03125	30.824999
2.0336914	36.892456
2.0361328	42.2199
2.0385742	45.216293
2.0410156	44.88278
2.043457	40.818275
2.0458984	33.406475
2.0483398	23.89606
2.0507812	14.135433
2.0532227	5.902612
2.055664	0.088158764
2.0581055	3.918961
2.0605469	7.524723
2.0629883	11.342484
2.0654297	14.64587
2.067871	16.498316
2.0703125	16.866268
2.072754	17.090954
2.0751953	18.682602
2.0776367	21.010017
2.0800781	21.954985
2.0825195	20.186953
2.084961	16.23891
2.0874023	13.08329
2.0898438	14.59967
2.0922852	19.338793
2.0947266	24.181263
2.097168	28.365286
2.0996094	32.151455
2.1020508	35.343555
2.1044922	36.923042
2.1069336	35.790176
2.109375	31.77445
2.1118164	26.403223
2.1142578	22.921299
2.1166992	23.359076
2.1191406	25.081238
2.121582	24.411533
2.1240234	19.85698
2.1264648	12.20845
2.1289062	5.9944806
2.1313477	10.765697
2.133789	17.413437
2.1362305	21.889196
2.1386719	24.452656
2.1411133	26.062849
2.1435547	27.206585
2.145996	27.693144
2.1484375	27.327728
2.150879	26.554747
2.1533203	26.252123
2.1557617	26.624813
2.1582031	26.607754
2.1606445	24.713743
2.163086	20.123755
2.1655273	13.320673
2.1679688	8.187356
2.1704102	12.984207
2.1728516	21.27148
2.175293	27.652504
2.1777344	30.603458
2.1801758	30.25866
2.1826172	27.823902
2.1850586	24.559359
2.1875	20.883478
2.1899414	16.608936
2.1923828	11.984724
2.1948242	8.340038
2.1972656	7.3226767
2.199707	7.9665823
2.2021484	8.181447
2.2045898	7.5405493
2.2070312	6.9146404
2.2094727	7.705265
2.211914	10.241794
2.2143555	13.457123
2.2167969	16.029884
2.2192383	16.905079
2.2216797	15.54182
2.224121	11.983649
2.2265625	6.882404
2.229004	3.8739917
2.2314453	9.506738
2.2338867	16.856657
2.2363281	23.719358
2.2387695	29.072437
2.241211	32.065845
2.2436523	32.145508
2.2460938	29.211859
2.2485352	23.812454
2.2509766	17.49345
2.253418	13.212491
2.2558594	13.413343
2.2583008	15.802947
2.2607422	17.909056
2.2631836	19.728167
2.265625	21.695189
2.2680664	23.314718
2.2705078	23.632978
2.2729492	22.18605
2.2753906	19.37321
2.277832	16.31439
2.2802734	14.075575
2.2827148	12.450342
2.2851562	10.152105
2.2875977	6.520726
2.290039	4.146477
2.2924805	8.517756
2.2949219	14.63479
2.2973633	20.233429
2.2998047	24.77107
2.302246	27.982851
2.3046875	29.60271
2.307129	29.45638
2.3095703	27.619705
2.3120117	24.360014
2.3144531	19.971252
2.3168945	14.963025
2.319336	10.937731
2.3217773	10.992484
2.3242188	14.736219
2.3266602	18.800444
2.3291016	21.35753
2.331543	21.647905
2.3339844	19.630466
2.3364258	15.935395
2.3388672	11.498265
2.3413086	7.0618205
2.34375	4.083152
2.3461914	6.635689
2.3486328	11.696108
2.3510742	16.422443
2.3535156	19.681635
2.355957	20.899559
2.3583984	20.095718
2.3608398	17.8585
2.3632812	15.132666
2.3657227	12.928746
2.368164	12.011635
2.3706055	12.548932
2.3730469	14.097129
2.3754883	16.021454
2.3779297	17.729078
2.380371	18.68586
2.3828125	18.50176
2.385254	17.09589
2.3876953	14.781481
2.3901367	12.189894
2.3925781	10.11324
2.3950195	9.224784
2.397461	9.642593
2.3999023	10.722206
2.4023438	11.433583
2.4047852	11.167064
2.4072266	10.54481
2.409668	11.287055
2.4121094	14.024346
2.4145508	17.440495
2.4169922	20.127583
2.4194336	21.52806
2.421875	22.027628
2.4243164	22.512438
2.4267578	23.714115
2.4291992	25.81593
2.4316406	28.373829
2.434082	30.509699
2.4365234	31.212215
2.4389648	29.65547
2.4414062	25.790178
2.4438477	21.247068
2.446289	19.710203
2.4487305	23.281723
