
X-Axis: Frequency (hz)
Y-Axis: Fourier Amplitude (cm/s)
Number of Data Sets: 4


DATASET #1

Name: FAS H1 (cm/s)
Num Points: 2044
Info: 

X, Y Data:
0.009765625	0.13143173
0.012207031	0.17640711
0.014648438	0.21437266
0.017089844	0.24953967
0.01953125	0.29534748
0.021972656	0.3766536
0.024414062	0.529851
0.026855469	0.79554814
0.029296875	1.1826628
0.03173828	1.6894792
0.034179688	2.2797194
0.036621094	2.8784757
0.0390625	3.4230733
0.041503906	3.8120203
0.043945312	3.9942677
0.04638672	3.9601953
0.048828125	3.7256782
0.05126953	3.3691833
0.053710938	2.939521
0.056152344	2.5042377
0.05859375	2.0327103
0.061035156	1.4544325
0.06347656	0.6835522
0.06591797	0.3956063
0.068359375	1.7107143
0.07080078	3.2231765
0.07324219	4.8089185
0.075683594	6.367576
0.078125	7.827133
0.080566406	9.097621
0.08300781	10.064473
0.08544922	10.530952
0.087890625	10.29729
0.09033203	9.286874
0.09277344	7.578646
0.095214844	5.560836
0.09765625	4.204368
0.10009766	4.7036157
0.10253906	6.344702
0.10498047	7.9215536
0.10742188	8.9861555
0.10986328	9.508728
0.11230469	9.690568
0.11474609	9.805467
0.1171875	10.131423
0.11962891	10.894734
0.12207031	12.15925
0.12451172	13.823334
0.12695312	15.699787
0.12939453	17.517216
0.13183594	18.954052
0.13427734	19.695978
0.13671875	19.518877
0.13916016	18.396273
0.14160156	16.408096
0.14404297	13.718834
0.14648438	10.889791
0.14892578	9.730959
0.15136719	12.497017
0.1538086	17.924511
0.15625	23.601091
0.1586914	27.982973
0.16113281	30.312572
0.16357422	30.513783
0.16601562	29.039461
0.16845703	26.654993
0.17089844	24.171902
0.17333984	22.19077
0.17578125	20.876518
0.17822266	19.939941
0.18066406	18.925768
0.18310547	17.523672
0.18554688	15.646883
0.18798828	13.383951
0.19042969	10.950779
0.1928711	8.52719
0.1953125	6.1059074
0.1977539	3.5975509
0.20019531	1.3710814
0.20263672	1.6887901
0.20507812	2.325606
0.20751953	3.0205588
0.20996094	6.905559
0.21240234	12.870951
0.21484375	18.778671
0.21728516	22.819395
0.21972656	23.930925
0.22216797	22.118862
0.22460938	18.295963
0.22705078	13.817445
0.22949219	10.281973
0.2319336	9.874921
0.234375	13.347046
0.2368164	18.733252
0.23925781	24.19454
0.24169922	28.156836
0.24414062	29.022923
0.24658203	25.63909
0.24902344	18.112001
0.25146484	8.790887
0.25390625	8.047995
0.25634766	15.494124
0.25878906	20.418552
0.26123047	21.70183
0.26367188	20.83151
0.26611328	20.374697
0.2685547	21.646858
0.2709961	23.243217
0.2734375	22.920565
0.2758789	19.475893
0.2783203	13.352522
0.28076172	6.7147202
0.28320312	3.740411
0.28564453	4.5457144
0.28808594	5.1665854
0.29052734	8.239978
0.29296875	12.401717
0.29541016	14.415176
0.29785156	12.741925
0.30029297	8.040356
0.30273438	4.6983714
0.30517578	7.484636
0.3076172	9.524213
0.3100586	10.091634
0.3125	12.431531
0.3149414	15.549372
0.3173828	15.503833
0.31982422	10.871784
0.32226562	4.6185107
0.32470703	7.31015
0.32714844	11.101937
0.32958984	10.386334
0.33203125	5.8097224
0.33447266	1.7743311
0.33691406	6.45941
0.33935547	9.768422
0.34179688	10.934468
0.34423828	10.56921
0.3466797	9.177137
0.3491211	6.8010187
0.3515625	3.8686514
0.3540039	5.06767
0.3564453	10.054529
0.35888672	14.125536
0.36132812	15.346931
0.36376953	13.355287
0.36621094	9.542503
0.36865234	6.886354
0.37109375	7.9884534
0.37353516	10.958406
0.37597656	13.775533
0.37841797	15.514366
0.38085938	15.263021
0.38330078	12.227691
0.3857422	6.602038
0.3881836	1.3134744
0.390625	6.5786033
0.3930664	11.250963
0.3955078	15.091051
0.39794922	17.77553
0.40039062	17.640764
0.40283203	13.48966
0.40527344	6.244156
0.40771484	6.7312527
0.41015625	15.955407
0.41259766	23.41127
0.41503906	26.476788
0.41748047	24.031221
0.41992188	17.931154
0.42236328	16.892744
0.4248047	25.790594
0.4272461	34.76472
0.4296875	37.427696
0.4321289	32.044296
0.4345703	20.685465
0.43701172	7.949853
0.43945312	2.1163461
0.44189453	6.034636
0.44433594	6.6413474
0.44677734	9.714793
0.44921875	15.529814
0.45166016	20.205812
0.45410156	21.865026
0.45654297	21.023369
0.45898438	19.218351
0.46142578	15.937911
0.4638672	10.94421
0.4663086	14.370049
0.46875	24.414248
0.4711914	28.519938
0.4736328	22.13784
0.47607422	10.877708
0.47851562	17.108303
0.48095703	26.851948
0.48339844	29.018782
0.48583984	26.67749
0.48828125	23.882109
0.49072266	18.73975
0.49316406	9.960581
0.49560547	9.973194
0.49804688	17.625292
0.5004883	18.609331
0.5029297	12.193184
0.5053711	7.201048
0.5078125	11.039159
0.5102539	9.495679
0.5126953	4.512691
0.5151367	18.025888
0.5175781	30.210287
0.52001953	32.586754
0.52246094	23.026451
0.52490234	6.213784
0.52734375	11.925568
0.52978516	19.859709
0.53222656	15.974401
0.53466797	3.5719347
0.5371094	10.420755
0.5395508	17.770275
0.5419922	14.942762
0.5444336	4.4207997
0.546875	16.374676
0.5493164	32.26059
0.5517578	40.63615
0.5541992	38.673714
0.5566406	29.047518
0.55908203	18.235716
0.56152344	10.476247
0.56396484	3.4396577
0.56640625	5.4510703
0.56884766	13.532947
0.57128906	20.59059
0.57373047	26.062328
0.5761719	26.858786
0.5786133	21.940512
0.5810547	20.79003
0.5834961	28.994532
0.5859375	33.15338
0.5883789	26.851475
0.5908203	13.894532
0.5932617	7.9574785
0.5957031	11.780031
0.59814453	12.244852
0.60058594	16.716131
0.60302734	25.115303
0.60546875	29.782694
0.60791016	27.872374
0.61035156	21.115664
0.61279297	14.256487
0.6152344	12.413103
0.6176758	13.722677
0.6201172	13.837694
0.6225586	12.394305
0.625	10.725928
0.6274414	10.057564
0.6298828	10.758695
0.6323242	11.940081
0.6347656	12.006928
0.63720703	9.423422
0.63964844	3.3037908
0.64208984	6.6444135
0.64453125	17.02396
0.64697266	24.740606
0.64941406	27.211313
0.65185547	24.968311
0.6542969	21.536903
0.6567383	20.264715
0.6591797	20.745644
0.6616211	21.025959
0.6640625	20.708227
0.6665039	20.194324
0.6689453	18.913748
0.6713867	15.573602
0.6738281	9.815001
0.67626953	6.2240233
0.67871094	15.362877
0.68115234	28.023554
0.68359375	38.6506
0.68603516	43.77195
0.68847656	42.3787
0.69091797	36.265747
0.6933594	28.282675
0.6958008	20.132465
0.6982422	12.101235
0.7006836	6.843725
0.703125	10.564198
0.7055664	14.415934
0.7080078	13.643785
0.7104492	8.991565
0.7128906	5.5358624
0.71533203	16.110209
0.71777344	33.856915
0.72021484	52.16964
0.72265625	64.51076
0.72509766	67.233955
0.72753906	62.185223
0.72998047	54.8683
0.7324219	48.606274
0.7348633	41.830383
0.7373047	32.803726
0.7397461	23.229141
0.7421875	16.347887
0.7446289	12.79462
0.7470703	11.171121
0.7495117	12.102987
0.7519531	14.407937
0.75439453	14.737445
0.75683594	11.752428
0.75927734	6.805221
0.76171875	2.6502361
0.76416016	1.1772131
0.76660156	2.1097064
0.76904297	3.4435658
0.7714844	4.7228413
0.7739258	7.427006
0.7763672	10.012428
0.7788086	10.574711
0.78125	10.143452
0.7836914	10.387904
0.7861328	10.807135
0.7885742	12.360905
0.7910156	17.315329
0.79345703	24.722017
0.79589844	32.134823
0.79833984	38.09194
0.80078125	42.18609
0.80322266	43.543816
0.80566406	40.54299
0.80810547	32.92054
0.8105469	23.577473
0.8129883	17.556183
0.8154297	16.341917
0.8178711	16.225956
0.8203125	16.053955
0.8227539	16.050827
0.8251953	15.285506
0.8276367	13.457567
0.8300781	11.596183
0.83251953	10.739469
0.83496094	10.214437
0.83740234	7.798864
0.83984375	2.7474852
0.84228516	6.8648305
0.84472656	14.75163
0.84716797	20.392668
0.8496094	22.528576
0.8520508	20.802649
0.8544922	15.779126
0.8569336	10.292294
0.859375	10.80011
0.8618164	16.82303
0.8642578	22.864176
0.8666992	26.733461
0.8691406	28.526817
0.87158203	29.821789
0.87402344	30.715698
0.87646484	29.238758
0.87890625	24.439846
0.88134766	17.695293
0.88378906	11.21756
0.88623047	6.1807213
0.8886719	2.851199
0.8911133	3.3121147
0.8935547	5.2773466
0.8959961	5.8348336
0.8984375	4.6473413
0.9008789	3.2192996
0.9033203	3.8258207
0.9057617	5.75472
0.9082031	8.307859
0.91064453	10.432233
0.91308594	11.022293
0.91552734	11.224528
0.91796875	13.698772
0.92041016	17.492561
0.92285156	19.929161
0.92529297	20.361216
0.9277344	19.49894
0.9301758	17.321526
0.9326172	13.550035
0.9350586	10.029708
0.9375	8.843767
0.9399414	7.6250463
0.9423828	4.497765
0.9448242	1.7898619
0.9472656	5.527345
0.94970703	10.607265
0.95214844	16.142101
0.95458984	21.111698
0.95703125	23.890589
0.95947266	23.474537
0.96191406	20.2427
0.96435547	15.174886
0.9667969	9.016077
0.9692383	2.8459644
0.9716797	1.9670464
0.9741211	4.297319
0.9765625	4.9705253
0.9790039	4.9389277
0.9814453	4.145175
0.9838867	2.562795
0.9863281	2.7892172
0.98876953	5.9236646
0.99121094	9.207296
0.99365234	11.447167
0.99609375	12.1282
0.99853516	11.316907
1.0009766	9.57846
1.003418	7.6612253
1.0058594	5.740103
1.0083008	3.2705016
1.0107422	1.014035
1.0131836	5.6433635
1.015625	11.241079
1.0180664	16.004572
1.0205078	18.946543
1.0229492	19.877085
1.0253906	18.754873
1.027832	16.12989
1.0302734	14.573807
1.0327148	17.146893
1.0351562	22.407722
1.0375977	27.099262
1.0400391	29.187325
1.0424805	28.000345
1.0449219	23.93796
1.0473633	17.91375
1.0498047	11.025231
1.0522461	5.3529043
1.0546875	6.299654
1.0571289	9.903864
1.0595703	12.004035
1.0620117	12.387414
1.0644531	11.125195
1.0668945	8.30659
1.0693359	4.569386
1.0717773	2.0699236
1.0742188	4.175462
1.0766602	6.459708
1.0791016	7.744476
1.081543	8.366228
1.0839844	9.159471
1.0864258	10.598504
1.0888672	12.055956
1.0913086	12.131332
1.09375	9.80055
1.0961914	5.5636377
1.0986328	4.8232913
1.1010742	11.078848
1.1035156	17.995602
1.105957	23.118567
1.1083984	25.299965
1.1108398	24.808765
1.1132812	22.428944
1.1157227	18.74077
1.1181641	14.634562
1.1206055	11.303382
1.1230469	9.921244
1.1254883	10.442608
1.1279297	10.638252
1.1303711	8.956449
1.1328125	5.61258
1.1352539	1.6084659
1.1376953	2.3215156
1.1401367	5.3959846
1.1425781	7.1897807
1.1450195	7.3910246
1.1474609	5.9971776
1.1499023	3.3408823
1.1523438	2.0074837
1.1547852	6.024681
1.1572266	10.562057
1.159668	14.309967
1.1621094	16.915962
1.1645508	19.039885
1.1669922	21.731281
1.1694336	24.833252
1.171875	26.62881
1.1743164	25.187098
1.1767578	19.584297
1.1791992	10.582747
1.1816406	4.78926
1.184082	13.093921
1.1865234	20.552595
1.1889648	24.219572
1.1914062	23.810886
1.1938477	20.275328
1.1962891	15.558207
1.1987305	12.0936
1.2011719	11.769915
1.2036133	13.896928
1.2060547	16.741257
1.2084961	19.594296
1.2109375	22.291325
1.2133789	24.709614
1.2158203	26.731455
1.2182617	28.162378
1.2207031	28.748953
1.2231445	28.329638
1.2255859	26.857327
1.2280273	24.341282
1.2304688	20.9087
1.2329102	16.944382
1.2353516	13.113268
1.237793	10.144046
1.2402344	7.975667
1.2426758	5.494981
1.2451172	2.5418193
1.2475586	5.299156
1.25	10.912494
1.2524414	15.793683
1.2548828	18.6262
1.2573242	18.88308
1.2597656	16.837101
1.262207	13.352986
1.2646484	9.522944
1.2670898	6.4231
1.2695312	4.900975
1.2719727	4.808542
1.2744141	4.9978027
1.2768555	4.8073363
1.2792969	4.2029653
1.2817383	3.195939
1.2841797	1.616742
1.2866211	2.0033636
1.2890625	5.3825426
1.2915039	8.467915
1.2939453	9.633492
1.2963867	7.9537253
1.2988281	3.7413836
1.3012695	2.433168
1.3037109	7.3508115
1.3061523	10.616933
1.3085938	11.686083
1.3110352	11.134215
1.3134766	10.05723
1.315918	9.4257145
1.3183594	9.629481
1.3208008	10.422389
1.3232422	11.232023
1.3256836	11.557238
1.328125	11.16377
1.3305664	10.237272
1.3330078	9.611012
1.3354492	10.527151
1.3378906	13.03141
1.340332	15.710748
1.3427734	17.217793
1.3452148	16.87958
1.3476562	14.711413
1.3500977	11.278582
1.3525391	7.6164503
1.3549805	5.3981404
1.3574219	5.794277
1.3598633	6.9049325
1.3623047	7.0384154
1.3647461	5.767819
1.3671875	3.302028
1.3696289	0.42918453
1.3720703	3.5041366
1.3745117	6.976877
1.3769531	10.303795
1.3793945	13.417854
1.3818359	16.242622
1.3842773	18.498697
1.3867188	19.841751
1.3891602	20.084494
1.3916016	19.288942
1.394043	17.814127
1.3964844	16.067818
1.3989258	14.257047
1.4013672	12.269011
1.4038086	9.818453
1.40625	6.8191543
1.4086914	3.676443
1.4111328	1.3811265
1.4135742	1.2326049
1.4160156	0.85956544
1.418457	0.97735626
1.4208984	2.9930775
1.4233398	4.538387
1.4257812	5.575422
1.4282227	7.8366323
1.4306641	12.16275
1.4331055	17.100004
1.4355469	20.860857
1.4379883	22.30811
1.4404297	21.088398
1.4428711	17.545462
1.4453125	12.333477
1.4477539	6.2179384
1.4501953	0.78041923
1.4526367	5.607845
1.4550781	9.343484
1.4575195	10.66622
1.4599609	9.576049
1.4624023	7.718202
1.4648438	8.503578
1.4672852	11.683104
1.4697266	14.412655
1.472168	15.646694
1.4746094	15.645636
1.4770508	15.038001
1.4794922	14.146686
1.4819336	12.96965
1.484375	11.509936
1.4868164	9.874869
1.4892578	8.502421
1.4916992	8.122093
1.4941406	8.822193
1.496582	9.623162
1.4990234	9.518424
1.5014648	8.143085
1.5039062	5.8415165
1.5063477	3.817219
1.5087891	4.290568
1.5112305	6.329988
1.5136719	8.016187
1.5161133	8.895766
1.5185547	9.233821
1.5209961	9.661661
1.5234375	10.524099
1.5258789	11.504654
1.5283203	11.935064
1.5307617	11.258978
1.5332031	9.363187
1.5356445	7.033445
1.5380859	6.433852
1.5405273	8.261859
1.5429688	10.180279
1.5454102	10.671019
1.5478516	9.339238
1.550293	6.4914355
1.5527344	2.8707645
1.5551758	1.1108621
1.5576172	3.8220634
1.5600586	5.52015
1.5625	5.8851194
1.5649414	5.065068
1.5673828	3.8058362
1.5698242	4.0723953
1.5722656	6.2167516
1.574707	8.656329
1.5771484	10.539752
1.5795898	11.476727
1.5820312	11.333576
1.5844727	10.304343
1.5869141	9.066786
1.5893555	8.525888
1.5917969	9.355847
1.5942383	11.493627
1.5966797	14.04296
1.5991211	15.681982
1.6015625	15.365435
1.6040039	13.04047
1.6064453	9.710637
1.6088867	6.9132943
1.6113281	5.5378847
1.6137695	5.6955166
1.6162109	8.478833
1.6186523	13.4959
1.6210938	18.854963
1.6235352	22.697159
1.6259766	23.62223
1.628418	21.049479
1.6308594	15.43576
1.6333008	8.377232
1.6357422	4.2546077
1.6381836	8.060397
1.640625	11.825749
1.6430664	13.864981
1.6455078	14.823598
1.6479492	15.694727
1.6503906	17.08464
1.652832	18.878035
1.6552734	20.41106
1.6577148	20.959404
1.6601562	20.31789
1.6625977	19.003853
1.6650391	17.93856
1.6674805	17.674534
1.6699219	17.840414
1.6723633	17.748957
1.6748047	17.021791
1.6772461	15.605637
1.6796875	13.603073
1.6821289	11.120422
1.6845703	8.181531
1.6870117	4.8252435
1.6894531	1.4591833
1.6918945	2.5951262
1.6943359	5.2076592
1.6967773	6.7799854
1.6992188	7.219959
1.7016602	6.63193
1.7041016	5.057853
1.706543	2.5978813
1.7089844	0.33578122
1.7114258	3.1501954
1.7138672	5.451339
1.7163086	7.2567024
1.71875	8.869281
1.7211914	10.54691
1.7236328	12.191313
1.7260742	13.39083
1.7285156	13.698801
1.730957	12.907434
1.7333984	11.145812
1.7358398	8.603048
1.7382812	5.5126715
1.7407227	2.0992134
1.7431641	1.5973052
1.7456055	4.6808925
1.7480469	6.965077
1.7504883	7.969432
1.7529297	7.510319
1.7553711	5.6483192
1.7578125	2.7388978
1.7602539	0.6634935
1.7626953	3.848207
1.7651367	6.192378
1.7675781	7.2796893
1.7700195	7.0071144
1.7724609	5.717616
1.7749023	4.062531
1.7773438	2.945635
1.7797852	2.5973375
1.7822266	2.1440141
1.784668	1.3976095
1.7871094	2.7064526
1.7895508	5.4352784
1.7919922	8.087977
1.7944336	9.896691
1.796875	10.600203
1.7993164	10.497987
1.8017578	10.229056
1.8041992	10.211216
1.8066406	10.336288
1.809082	10.170823
1.8115234	9.327294
1.8139648	7.7288537
1.8164062	5.6829367
1.8188477	4.579245
1.8212891	6.3854365
1.8237305	9.769761
1.8261719	13.039255
1.8286133	15.363058
1.8310547	16.357244
1.8334961	15.988763
1.8359375	14.576132
1.8383789	12.703497
1.8408203	10.967496
1.8432617	9.590403
1.8457031	8.561941
1.8481445	7.942175
1.8505859	7.9388194
1.8530273	8.381189
1.8554688	8.718828
1.8579102	8.607332
1.8603516	8.296523
1.862793	8.423126
1.8652344	9.156291
1.8676758	9.930245
1.8701172	10.066207
1.8725586	9.210922
1.875	7.482245
1.8774414	5.5880847
1.8798828	4.961014
1.8823242	6.1928253
1.8847656	7.952384
1.887207	9.302534
1.8896484	10.0531
1.8920898	10.466102
1.8945312	10.808009
1.8969727	11.057032
1.8994141	11.141363
1.9018555	11.236917
1.9042969	11.670915
1.9067383	12.40056
1.9091797	13.084079
1.9116211	13.513668
1.9140625	13.616276
1.9165039	13.353241
1.9189453	12.595246
1.9213867	11.232731
1.9238281	9.330634
1.9262695	7.1307893
1.9287109	4.8730497
1.9311523	2.6240866
1.9335938	0.43054244
1.9360352	2.403752
1.9384766	5.238485
1.940918	7.9384565
1.9433594	9.887333
1.9458008	10.478781
1.9482422	9.38273
1.9506836	6.7352815
1.953125	3.1342494
1.9555664	0.85983014
1.9580078	3.8137724
1.9604492	5.843857
1.9628906	7.0753636
1.965332	8.07904
1.9677734	9.033347
1.9702148	9.521244
1.9726562	9.051934
1.9750977	7.445551
1.9775391	4.8681307
1.9799805	1.9353864
1.9824219	2.3727021
1.9848633	5.1288266
1.9873047	7.248069
1.9897461	8.280055
1.9921875	8.162861
1.9946289	7.150799
1.9970703	5.83202
1.9995117	4.978608
2.0019531	4.8395553
2.0043945	4.957283
2.006836	4.6892633
2.0092773	3.8039973
2.0117188	3.1762602
2.0141602	4.8975415
2.0166016	8.15807
2.019043	11.517757
2.0214844	14.291164
2.0239258	16.147335
2.0263672	16.985842
2.0288086	16.934193
2.03125	16.233534
2.0336914	15.211782
2.0361328	14.152964
2.0385742	13.267962
2.0410156	12.606023
2.043457	12.150751
2.0458984	11.972548
2.0483398	12.096295
2.0507812	12.463045
2.0532227	12.889119
2.055664	13.128885
2.0581055	13.013838
2.0605469	12.519174
2.0629883	11.679905
2.0654297	10.505089
2.067871	9.052617
2.0703125	7.360077
2.072754	5.494558
2.0751953	3.6054885
2.0776367	1.8730124
2.0800781	0.87219316
2.0825195	1.8222444
2.084961	3.5044436
2.0874023	5.6282024
2.0898438	7.9890127
2.0922852	10.136102
2.0947266	11.599586
2.097168	12.091853
2.0996094	11.601562
2.1020508	10.450645
2.1044922	9.122677
2.1069336	8.094736
2.109375	7.608116
2.1118164	7.572188
2.1142578	7.653231
2.1166992	7.4561577
2.1191406	6.7088823
2.121582	5.2867117
2.1240234	3.4426315
2.1264648	2.8034253
2.1289062	4.8246984
2.1313477	7.461444
2.133789	9.668484
2.1362305	11.173227
2.1386719	12.003812
2.1411133	12.308002
2.1435547	12.201747
2.145996	11.716727
2.1484375	10.842821
2.150879	9.656711
2.1533203	8.376987
2.1557617	7.298427
2.1582031	6.5889378
2.1606445	6.087962
2.163086	5.5374947
2.1655273	4.855827
2.1679688	4.1396623
2.1704102	3.4661973
2.1728516	2.7982624
2.175293	2.112721
2.1777344	1.577664
2.1801758	1.5167757
2.1826172	1.7641392
2.1850586	1.8789347
2.1875	1.6890492
2.1899414	1.2475085
2.1923828	0.89543587
2.1948242	1.0340009
2.1972656	1.3358119
2.199707	1.3416767
2.2021484	1.0506275
2.2045898	1.2750883
2.2070312	2.6485806
2.2094727	4.5945077
2.211914	6.7956862
2.2143555	9.00507
2.2167969	10.943138
2.2192383	12.424092
2.2216797	13.42663
2.224121	14.070987
2.2265625	14.495438
2.229004	14.670315
2.2314453	14.463848
2.2338867	13.661454
2.2363281	12.182951
2.2387695	10.228518
2.241211	8.259424
2.2436523	6.949725
2.2460938	6.677481
2.2485352	7.1937594
2.2509766	8.077702
2.253418	9.003583
2.2558594	9.6475525
2.2583008	9.699139
2.2607422	8.936635
2.2631836	7.4707317
2.265625	5.87153
2.2680664	5.0256777
2.2705078	5.269405
2.2729492	5.776864
2.2753906	5.7633104
2.277832	4.9801707
2.2802734	3.4658709
2.2827148	1.6257709
2.2851562	2.203428
2.2875977	4.7028546
2.290039	7.075515
2.2924805	8.750561
2.2949219	9.392553
2.2973633	8.883842
2.2998047	7.416587
2.302246	5.5150437
2.3046875	4.1460376
2.307129	4.1133966
2.3095703	4.6292
2.3120117	4.7229033
2.3144531	4.242423
2.3168945	3.447664
2.319336	2.74552
2.3217773	2.304958
2.3242188	2.0031965
2.3266602	1.5593415
2.3291016	0.7026187
2.331543	0.7917282
2.3339844	2.5546782
2.3364258	4.2744417
2.3388672	5.5581894
2.3413086	6.2105937
2.34375	6.261473
2.3461914	5.8708353
2.3486328	5.209772
2.3510742	4.562376
2.3535156	4.072932
2.355957	3.5465987
2.3583984	3.0686674
2.3608398	3.6104732
2.3632812	5.0917053
2.3657227	6.334758
2.368164	6.6439514
2.3706055	5.7882133
2.3730469	3.9646614
2.3754883	1.6930972
2.3779297	0.715488
2.380371	2.1527534
2.3828125	2.789084
2.385254	2.5668428
2.3876953	1.7303048
2.3901367	0.64694804
2.3925781	0.4980348
2.3950195	1.2896274
2.397461	1.8774904
2.3999023	2.31425
2.4023438	2.5732656
2.4047852	2.467969
2.4072266	1.8355311
2.409668	0.72515297
2.4121094	1.1911782
2.4145508	2.9979017
2.4169922	4.795771
2.4194336	6.2662807
2.421875	7.1559973
2.4243164	7.427401
2.4267578	7.1300235
2.4291992	6.422628
2.4316406	5.5678735
2.434082	4.7098637
2.4365234	3.7940295
2.4389648	2.5540717
2.4414062	0.9522136
2.4438477	1.6848899
2.446289	4.185657
2.4487305	6.690745
2.4511719	8.651844
