
X-Axis: Frequency (hz)
Y-Axis: Fourier Amplitude (cm/s)
Number of Data Sets: 4


DATASET #1

Name: FAS H1 (cm/s)
Num Points: 2044
Info: 

X, Y Data:
0.009765625	0.09639152
0.012207031	0.15738866
0.014648438	0.23834439
0.017089844	0.33851364
0.01953125	0.45645425
0.021972656	0.5913358
0.024414062	0.7402125
0.026855469	0.89229375
0.029296875	1.029257
0.03173828	1.1262639
0.034179688	1.1620634
0.036621094	1.1331877
0.0390625	1.0750805
0.041503906	1.0900018
0.043945312	1.2983941
0.04638672	1.714534
0.048828125	2.2602754
0.05126953	2.8558724
0.053710938	3.4411714
0.056152344	3.9702744
0.05859375	4.4185324
0.061035156	4.795093
0.06347656	5.163382
0.06591797	5.6354547
0.068359375	6.3206687
0.07080078	7.258209
0.07324219	8.389266
0.075683594	9.595705
0.078125	10.748139
0.080566406	11.740028
0.08300781	12.507411
0.08544922	13.036585
0.087890625	13.373238
0.09033203	13.622164
0.09277344	13.930692
0.095214844	14.451843
0.09765625	15.280967
0.10009766	16.414865
0.10253906	17.754414
0.10498047	19.143625
0.10742188	20.41792
0.10986328	21.42996
0.11230469	22.067194
0.11474609	22.26651
0.1171875	22.018408
0.11962891	21.386604
0.12207031	20.515448
0.12451172	19.634537
0.12695312	19.047094
0.12939453	19.057589
0.13183594	19.87123
0.13427734	21.515648
0.13671875	23.842072
0.13916016	26.592918
0.14160156	29.446844
0.14404297	32.057743
0.14648438	34.12467
0.14892578	35.459324
0.15136719	36.060215
0.1538086	36.126694
0.15625	35.96003
0.1586914	35.7973
0.16113281	35.652412
0.16357422	35.314648
0.16601562	34.5303
0.16845703	33.200394
0.17089844	31.477854
0.17333984	29.713787
0.17578125	28.281204
0.17822266	27.427126
0.18066406	27.231659
0.18310547	27.655983
0.18554688	28.555471
0.18798828	29.629417
0.19042969	30.456848
0.1928711	30.666197
0.1953125	30.13246
0.1977539	29.067268
0.20019531	27.905031
0.20263672	26.982338
0.20507812	26.246222
0.20751953	25.292826
0.20996094	23.704762
0.21240234	21.371563
0.21484375	18.59868
0.21728516	16.060955
0.21972656	14.619148
0.22216797	14.862566
0.22460938	16.654251
0.22705078	19.39005
0.22949219	22.49234
0.2319336	25.541597
0.234375	28.246143
0.2368164	30.415302
0.23925781	31.933538
0.24169922	32.711063
0.24414062	32.64892
0.24658203	31.647575
0.24902344	29.649488
0.25146484	26.688593
0.25390625	22.923344
0.25634766	18.65217
0.25878906	14.348799
0.26123047	10.792192
0.26367188	9.143656
0.26611328	9.937482
0.2685547	12.078819
0.2709961	14.461843
0.2734375	16.729563
0.2758789	18.974783
0.2783203	21.474554
0.28076172	24.50922
0.28320312	28.220531
0.28564453	32.51216
0.28808594	37.02594
0.29052734	41.185043
0.29296875	44.298782
0.29541016	45.719364
0.29785156	44.993347
0.30029297	41.983925
0.30273438	36.93654
0.30517578	30.472559
0.3076172	23.531984
0.3100586	17.287611
0.3125	12.941194
0.3149414	10.945168
0.3173828	10.15762
0.31982422	9.04113
0.32226562	7.0018992
0.32470703	4.4935603
0.32714844	3.6755276
0.32958984	5.986231
0.33203125	9.00737
0.33447266	11.815084
0.33691406	14.375858
0.33935547	16.829409
0.34179688	19.16198
0.34423828	21.112494
0.3466797	22.310974
0.3491211	22.497381
0.3515625	21.705482
0.3540039	20.35525
0.3564453	19.189877
0.35888672	18.95863
0.36132812	19.932974
0.36376953	21.771631
0.36621094	23.870535
0.36865234	25.643509
0.37109375	26.562906
0.37353516	26.1854
0.37597656	24.246843
0.37841797	20.748844
0.38085938	15.960563
0.38330078	10.32689
0.3857422	4.3473587
0.3881836	1.6583985
0.390625	6.920784
0.3930664	11.137604
0.3955078	13.713919
0.39794922	14.368289
0.40039062	13.670634
0.40283203	13.785988
0.40527344	17.237225
0.40771484	23.395788
0.41015625	29.91805
0.41259766	35.012318
0.41503906	37.724358
0.41748047	37.87989
0.41992188	35.96085
0.42236328	32.88884
0.4248047	29.751123
0.4272461	27.471607
0.4296875	26.440647
0.4321289	26.33104
0.4345703	26.377573
0.43701172	25.882118
0.43945312	24.488636
0.44189453	22.129622
0.44433594	18.851063
0.44677734	14.821659
0.44921875	10.821485
0.45166016	9.320061
0.45410156	12.047801
0.45654297	15.997924
0.45898438	18.417856
0.46142578	18.047691
0.4638672	14.684687
0.4663086	9.281009
0.46875	6.3254046
0.4711914	11.888167
0.4736328	19.597898
0.47607422	26.482937
0.47851562	31.506342
0.48095703	33.965553
0.48339844	33.336483
0.48583984	29.389421
0.48828125	22.389338
0.49072266	13.202977
0.49316406	3.41243
0.49560547	6.857654
0.49804688	14.504692
0.5004883	19.625973
0.5029297	21.972897
0.5053711	21.97497
0.5078125	20.55844
0.5102539	18.855742
0.5126953	17.764164
0.5151367	17.512177
0.5175781	17.689919
0.52001953	17.712626
0.52246094	17.169317
0.52490234	15.929856
0.52734375	14.13647
0.52978516	12.164418
0.53222656	10.551937
0.53466797	9.854597
0.5371094	10.352229
0.5395508	11.762641
0.5419922	13.317283
0.5444336	14.054458
0.546875	13.160716
0.5493164	10.406354
0.5517578	6.9305468
0.5541992	6.9651437
0.5566406	11.220076
0.55908203	15.442891
0.56152344	17.99652
0.56396484	18.720194
0.56640625	18.145155
0.56884766	16.898619
0.57128906	15.26121
0.57373047	13.264976
0.5761719	11.031464
0.5786133	8.813114
0.5810547	6.9479094
0.5834961	5.9780293
0.5859375	6.0356374
0.5883789	5.94578
0.5908203	4.5120397
0.5932617	2.939363
0.5957031	6.393341
0.59814453	11.542756
0.60058594	15.702357
0.60302734	17.925137
0.60546875	18.355486
0.60791016	17.843082
0.61035156	17.136412
0.61279297	16.444576
0.6152344	15.972013
0.6176758	16.246315
0.6201172	17.160532
0.6225586	17.560553
0.625	16.362833
0.6274414	13.486765
0.6298828	9.929751
0.6323242	7.3417487
0.6347656	7.098602
0.63720703	8.803834
0.63964844	11.238422
0.64208984	13.483518
0.64453125	14.976495
0.64697266	15.719597
0.64941406	16.089659
0.65185547	16.200237
0.6542969	15.655395
0.6567383	14.074737
0.6591797	11.719146
0.6616211	9.776876
0.6640625	9.810214
0.6665039	11.578176
0.6689453	13.30505
0.6713867	13.721539
0.6738281	12.377411
0.67626953	9.503818
0.67871094	5.8470564
0.68115234	2.565113
0.68359375	2.0664191
0.68603516	3.245148
0.68847656	3.500925
0.69091797	2.5143602
0.6933594	0.8493796
0.6958008	3.8953788
0.6982422	8.406969
0.7006836	12.889331
0.703125	16.322786
0.7055664	17.99404
0.7080078	17.774248
0.7104492	16.179264
0.7128906	14.127016
0.71533203	12.416073
0.71777344	11.298166
0.72021484	10.568914
0.72265625	9.925001
0.72509766	9.190035
0.72753906	8.555846
0.72998047	8.699977
0.7324219	9.917297
0.7348633	11.301654
0.7373047	11.661929
0.7397461	10.531159
0.7421875	8.707062
0.7446289	8.241289
0.7470703	9.719974
0.7495117	11.138624
0.7519531	11.388317
0.75439453	11.314051
0.75683594	12.718851
0.75927734	15.879863
0.76171875	19.625381
0.76416016	23.147472
0.76660156	26.066067
0.76904297	27.903482
0.7714844	28.158556
0.7739258	26.860128
0.7763672	24.782967
0.7788086	22.831102
0.78125	21.097157
0.7836914	18.8259
0.7861328	15.254814
0.7885742	10.161939
0.7910156	4.1116605
0.79345703	4.268551
0.79589844	10.441943
0.79833984	15.387046
0.80078125	18.108551
0.80322266	18.471292
0.80566406	17.033064
0.80810547	15.050673
0.8105469	14.561111
0.8129883	16.94189
0.8154297	20.995434
0.8178711	24.863045
0.8203125	27.7429
0.8227539	29.70826
0.8251953	30.815413
0.8276367	30.579414
0.8300781	28.389523
0.83251953	24.137848
0.83496094	18.283619
0.83740234	11.486682
0.83984375	4.936175
0.84228516	6.0056086
0.84472656	12.190935
0.84716797	16.920397
0.8496094	18.765715
0.8520508	17.244736
0.8544922	12.641107
0.8569336	6.549628
0.859375	7.6343684
0.8618164	16.076096
0.8642578	24.303482
0.8666992	30.232235
0.8691406	32.978878
0.87158203	32.600216
0.87402344	29.891098
0.87646484	25.935427
0.87890625	21.659935
0.88134766	17.658512
0.88378906	14.350021
0.88623047	12.17863
0.8886719	11.482523
0.8911133	12.12381
0.8935547	13.513191
0.8959961	14.965018
0.8984375	15.862917
0.9008789	15.784767
0.9033203	14.678508
0.9057617	12.897939
0.9082031	11.056975
0.91064453	9.772752
0.91308594	9.435271
0.91552734	10.138256
0.91796875	11.742044
0.92041016	13.898927
0.92285156	16.076527
0.92529297	17.76988
0.9277344	18.915321
0.9301758	20.222265
0.9326172	22.783821
0.9350586	26.9159
0.9375	31.824461
0.9399414	36.458008
0.9423828	40.1412
0.9448242	42.616657
0.9472656	43.828808
0.94970703	43.797794
0.95214844	42.692177
0.95458984	40.922558
0.95703125	39.080498
0.95947266	37.634182
0.96191406	36.53402
0.96435547	35.1351
0.9667969	32.63381
0.9692383	28.613852
0.9716797	23.29395
0.9741211	17.38003
0.9765625	11.711029
0.9790039	7.0514545
0.9814453	4.574903
0.9838867	5.4075136
0.9863281	7.373141
0.98876953	8.842531
0.99121094	9.418348
0.99365234	9.022893
0.99609375	7.637234
0.99853516	5.3374643
1.0009766	2.6811147
1.003418	2.6599317
1.0058594	5.399629
1.0083008	8.045167
1.0107422	10.276646
1.0131836	12.218285
1.015625	13.984156
1.0180664	15.569954
1.0205078	16.923513
1.0229492	18.0285
1.0253906	18.870502
1.027832	19.341787
1.0302734	19.248652
1.0327148	18.437487
1.0351562	16.970755
1.0375977	15.266123
1.0400391	13.983617
1.0424805	13.52653
1.0449219	13.576663
1.0473633	13.554111
1.0498047	13.391355
1.0522461	13.51575
1.0546875	14.088877
1.0571289	14.686718
1.0595703	14.919806
1.0620117	14.924093
1.0644531	15.151142
1.0668945	15.840021
1.0693359	16.920086
1.0717773	18.328238
1.0742188	20.06225
1.0766602	21.91599
1.0791016	23.393291
1.081543	23.994556
1.0839844	23.535606
1.0864258	22.21235
1.0888672	20.424126
1.0913086	18.570538
1.09375	16.915335
1.0961914	15.535158
1.0986328	14.394591
1.1010742	13.425856
1.1035156	12.464405
1.105957	11.144956
1.1083984	9.14172
1.1108398	6.7411146
1.1132812	5.529818
1.1157227	6.9019356
1.1181641	9.132539
1.1206055	10.882864
1.1230469	12.217943
1.1254883	13.826511
1.1279297	16.137238
1.1303711	18.85646
1.1328125	21.262936
1.1352539	22.614082
1.1376953	22.375946
1.1401367	20.391869
1.1425781	16.97013
1.1450195	12.829445
1.1474609	8.833266
1.1499023	5.5912433
1.1523438	3.2839963
1.1547852	2.220072
1.1572266	2.7420661
1.159668	3.6598608
1.1621094	4.486515
1.1645508	5.6613054
1.1669922	7.476566
1.1694336	9.581207
1.171875	11.431818
1.1743164	12.637337
1.1767578	12.98835
1.1791992	12.39673
1.1816406	10.910766
1.184082	8.811239
1.1865234	6.6572104
1.1889648	5.0855746
1.1914062	4.2146163
1.1938477	3.4830115
1.1962891	2.944538
1.1987305	3.9959416
1.2011719	6.501779
1.2036133	9.304088
1.2060547	11.780668
1.2084961	13.634814
1.2109375	14.707928
1.2133789	14.835898
1.2158203	13.839192
1.2182617	11.666001
1.2207031	8.542889
1.2231445	5.0188823
1.2255859	1.8245853
1.2280273	0.80705434
1.2304688	2.5006418
1.2329102	4.437937
1.2353516	7.0579176
1.237793	10.0994
1.2402344	13.094256
1.2426758	15.753664
1.2451172	17.977701
1.2475586	19.718266
1.25	20.865583
1.2524414	21.283335
1.2548828	20.90889
1.2573242	19.795061
1.2597656	18.096956
1.262207	16.014278
1.2646484	13.731794
1.2670898	11.401348
1.2695312	9.130698
1.2719727	6.9845257
1.2744141	5.036926
1.2768555	3.5791736
1.2792969	3.5788727
1.2817383	5.428408
1.2841797	8.221854
1.2866211	11.330854
1.2890625	14.320921
1.2915039	16.807083
1.2939453	18.506224
1.2963867	19.299175
1.2988281	19.18243
1.3012695	18.168509
1.3037109	16.191284
1.3061523	13.16015
1.3085938	9.261956
1.3110352	6.0615935
1.3134766	8.10162
1.315918	13.922977
1.3183594	20.168125
1.3208008	25.546986
1.3232422	29.34886
1.3256836	31.210592
1.328125	31.092878
1.3305664	29.24031
1.3330078	26.138468
1.3354492	22.476973
1.3378906	19.121286
1.340332	16.97231
1.3427734	16.4599
1.3452148	17.09234
1.3476562	17.953823
1.3500977	18.455544
1.3525391	18.529467
1.3549805	18.462263
1.3574219	18.611158
1.3598633	19.125675
1.3623047	19.838205
1.3647461	20.338037
1.3671875	20.128088
1.3696289	18.813068
1.3720703	16.243698
1.3745117	12.574764
1.3769531	8.20258
1.3793945	3.6441462
1.3818359	1.0085633
1.3842773	4.5029387
1.3867188	7.2896385
1.3891602	9.061264
1.3916016	9.84811
1.394043	9.966361
1.3964844	10.084187
1.3989258	10.978534
1.4013672	12.856714
1.4038086	15.184814
1.40625	17.261545
1.4086914	18.618979
1.4111328	19.078392
1.4135742	18.646637
1.4160156	17.391714
1.418457	15.385996
1.4208984	12.723013
1.4233398	9.577906
1.4257812	6.252655
1.4282227	3.3877656
1.4306641	3.1808374
1.4331055	5.621223
1.4355469	8.385468
1.4379883	10.926204
1.4404297	13.087297
1.4428711	14.833979
1.4453125	16.232656
1.4477539	17.488304
1.4501953	18.94248
1.4526367	20.926527
1.4550781	23.522379
1.4575195	26.419462
1.4599609	29.017452
1.4624023	30.712276
1.4648438	31.09564
1.4672852	30.022573
1.4697266	27.673702
1.472168	24.516243
1.4746094	21.216162
1.4770508	18.45616
1.4794922	16.568874
1.4819336	15.338904
1.484375	14.263883
1.4868164	12.961773
1.4892578	11.319031
1.4916992	9.395108
1.4941406	7.2667236
1.496582	5.0033364
1.4990234	2.8015482
1.5014648	1.5520935
1.5039062	2.4423032
1.5063477	3.4188719
1.5087891	3.6168246
1.5112305	3.021056
1.5136719	2.2205708
1.5161133	2.5528011
1.5185547	3.85246
1.5209961	4.974714
1.5234375	5.398564
1.5258789	4.9599648
1.5283203	3.8144248
1.5307617	3.2292047
1.5332031	5.5246286
1.5356445	9.67534
1.5380859	14.353212
1.5405273	18.620802
1.5429688	21.60241
1.5454102	22.613916
1.5478516	21.37361
1.550293	18.148958
1.5527344	13.75176
1.5551758	9.496139
1.5576172	7.1918483
1.5600586	7.6457014
1.5625	9.110709
1.5649414	10.310085
1.5673828	11.104121
1.5698242	11.699718
1.5722656	12.264945
1.574707	12.857281
1.5771484	13.433961
1.5795898	13.854776
1.5820312	13.909318
1.5844727	13.451156
1.5869141	12.511712
1.5893555	11.315619
1.5917969	10.16735
1.5942383	9.298689
1.5966797	8.798364
1.5991211	8.668989
1.6015625	8.95198
1.6040039	9.750558
1.6064453	11.107295
1.6088867	12.888783
1.6113281	14.789828
1.6137695	16.414883
1.6162109	17.381811
1.6186523	17.390726
1.6210938	16.278187
1.6235352	14.085344
1.6259766	11.167258
1.628418	8.571774
1.6308594	8.417501
1.6333008	11.296062
1.6357422	15.238961
1.6381836	18.803705
1.640625	21.256979
1.6430664	22.213757
1.6455078	21.541399
1.6479492	19.349876
1.6503906	16.012026
1.652832	12.175438
1.6552734	8.760679
1.6577148	6.80232
1.6601562	6.450422
1.6625977	6.487654
1.6650391	5.998001
1.6674805	4.997871
1.6699219	4.3013773
1.6723633	5.061282
1.6748047	7.187352
1.6772461	9.964296
1.6796875	13.021088
1.6821289	16.146141
1.6845703	19.151114
1.6870117	21.89206
1.6894531	24.283329
1.6918945	26.259554
1.6943359	27.728556
1.6967773	28.548641
1.6992188	28.58376
1.7016602	27.747343
1.7041016	26.018993
1.706543	23.46148
1.7089844	20.231647
1.7114258	16.588926
1.7138672	12.871641
1.7163086	9.421281
1.71875	6.4967895
1.7211914	4.214443
1.7236328	2.5460825
1.7260742	1.4148388
1.7285156	0.8898264
1.730957	1.0647461
1.7333984	1.5464872
1.7358398	2.2372694
1.7382812	3.2278636
1.7407227	4.5009007
1.7431641	5.930525
1.7456055	7.3823323
1.7480469	8.803478
1.7504883	10.239028
1.7529297	11.788617
1.7553711	13.536535
1.7578125	15.49053
1.7602539	17.566841
1.7626953	19.60534
1.7651367	21.40689
1.7675781	22.782976
1.7700195	23.615955
1.7724609	23.88409
1.7749023	23.63215
1.7773438	22.906105
1.7797852	21.700094
1.7822266	19.956415
1.784668	17.619707
1.7871094	14.703013
1.7895508	11.327653
1.7919922	7.728956
1.7944336	4.2161555
1.796875	1.1815192
1.7993164	1.7054546
1.8017578	3.5392346
1.8041992	4.738261
1.8066406	5.344075
1.809082	5.522968
1.8115234	5.6130605
1.8139648	6.1392403
1.8164062	7.4572997
1.8188477	9.421137
1.8212891	11.664601
1.8237305	13.930925
1.8261719	16.135191
1.8286133	18.269876
1.8310547	20.273384
1.8334961	21.973303
1.8359375	23.136806
1.8383789	23.56434
1.8408203	23.156298
1.8432617	21.936304
1.8457031	20.037945
1.8481445	17.720087
1.8505859	15.374891
1.8530273	13.560359
1.8554688	12.926177
1.8579102	13.839215
1.8603516	16.020483
1.862793	18.779533
1.8652344	21.3902
1.8676758	23.222898
1.8701172	23.800058
1.8725586	22.881046
1.875	20.544144
1.8774414	17.279863
1.8798828	14.124252
1.8823242	12.601531
1.8847656	13.458509
1.887207	15.485058
1.8896484	17.091532
1.8920898	17.44416
1.8945312	16.386858
1.8969727	14.217362
1.8994141	11.503356
1.9018555	8.935745
1.9042969	7.3247476
1.9067383	7.340414
1.9091797	8.773299
1.9116211	10.888288
1.9140625	13.20857
1.9165039	15.515735
1.9189453	17.64952
1.9213867	19.417185
1.9238281	20.592459
1.9262695	20.968784
1.9287109	20.42214
1.9311523	18.930584
1.9335938	16.572332
1.9360352	13.513109
1.9384766	10.012115
1.940918	6.455536
1.9433594	3.7384937
1.9458008	4.0764747
1.9482422	6.6214867
1.9506836	9.339621
1.953125	11.675677
1.9555664	13.352038
1.9580078	14.138634
1.9604492	13.862008
1.9628906	12.463538
1.965332	10.021132
1.9677734	6.737525
1.9702148	2.95101
1.9726562	1.6172562
1.9750977	5.3885636
1.9775391	8.899752
1.9799805	11.702692
1.9824219	13.58217
1.9848633	14.41628
1.9873047	14.190896
1.9897461	13.01075
1.9921875	11.107267
1.9946289	8.869318
1.9970703	6.924014
1.9995117	6.2945857
2.0019531	7.6668863
2.0043945	10.43197
2.006836	13.824508
2.0092773	17.354078
2.0117188	20.645754
2.0141602	23.356527
2.0166016	25.207684
2.019043	26.018879
2.0214844	25.710043
2.0239258	24.321411
2.0263672	22.002512
2.0288086	19.019945
2.03125	15.772477
2.0336914	12.800313
2.0361328	10.728765
2.0385742	9.964175
2.0410156	10.247431
2.043457	10.860695
2.0458984	11.217131
2.0483398	11.02102
2.0507812	10.15942
2.0532227	8.631857
2.055664	6.4862213
2.0581055	3.7875857
2.0605469	0.67090094
2.0629883	2.8141856
2.0654297	6.302594
2.067871	9.585554
2.0703125	12.413763
2.072754	14.602438
2.0751953	16.05409
2.0776367	16.778795
2.0800781	16.896883
2.0825195	16.624979
2.084961	16.196884
2.0874023	15.743919
2.0898438	15.226831
2.0922852	14.504673
2.0947266	13.462826
2.097168	12.105659
2.0996094	10.572827
2.1020508	9.09565
2.1044922	7.9273596
2.1069336	7.193972
2.109375	6.7734604
2.1118164	6.3783
2.1142578	5.7648964
2.1166992	4.863664
2.1191406	3.7953353
2.121582	2.8667614
2.1240234	2.5385914
2.1264648	2.9199357
2.1289062	3.5571506
2.1313477	4.138193
2.133789	4.622267
2.1362305	5.124115
2.1386719	5.7877073
2.1411133	6.665951
2.1435547	7.6755424
2.145996	8.627563
2.1484375	9.297596
2.150879	9.494208
2.1533203	9.11968
2.1557617	8.202267
2.1582031	6.9211826
2.1606445	5.633081
2.163086	4.8723564
2.1655273	5.0314927
2.1679688	5.867377
2.1704102	6.8974633
2.1728516	7.870352
2.175293	8.759857
2.1777344	9.655417
2.1801758	10.634287
2.1826172	11.704062
2.1850586	12.765255
2.1875	13.642586
2.1899414	14.151378
2.1923828	14.121186
2.1948242	13.437141
2.1972656	12.086758
2.199707	10.232993
2.2021484	8.41933
2.2045898	7.735539
2.2070312	9.011572
2.2094727	11.584863
2.211914	14.369448
2.2143555	16.66147
2.2167969	18.051302
2.2192383	18.313982
2.2216797	17.396763
2.224121	15.404534
2.2265625	12.601962
2.229004	9.421886
2.2314453	6.5426707
2.2338867	5.023027
2.2363281	5.3167567
2.2387695	6.0828147
2.241211	6.1527987
2.2436523	5.124422
2.2460938	2.9966764
2.2485352	0.3175261
2.2509766	3.6330717
2.253418	7.3549733
2.2558594	10.858208
2.2583008	13.863572
2.2607422	16.249737
2.2631836	18.081032
2.265625	19.548462
2.2680664	20.816172
2.2705078	21.897839
2.2729492	22.62319
2.2753906	22.758877
2.277832	22.166334
2.2802734	20.873768
2.2827148	19.105013
2.2851562	17.202858
2.2875977	15.529672
2.290039	14.33802
2.2924805	13.639992
2.2949219	13.216926
2.2973633	12.760082
2.2998047	12.004787
2.302246	10.813898
2.3046875	9.187842
2.307129	7.263498
2.3095703	5.390829
2.3120117	4.2231793
2.3144531	4.393745
2.3168945	5.4078417
2.319336	6.437579
2.3217773	7.1557302
2.3242188	7.570109
2.3266602	7.843643
2.3291016	8.127101
2.331543	8.442657
2.3339844	8.71184
2.3364258	8.860501
2.3388672	8.9655695
2.3413086	9.27356
2.34375	10.042938
2.3461914	11.277911
2.3486328	12.677186
2.3510742	13.844565
2.3535156	14.483727
2.355957	14.456964
2.3583984	13.783923
2.3608398	12.573742
2.3632812	10.965889
2.3657227	9.098133
2.368164	7.0769615
2.3706055	5.0250087
2.3730469	3.0840218
2.3754883	1.5494617
2.3779297	1.4033145
2.380371	2.407274
2.3828125	3.387467
2.385254	4.0609775
2.3876953	4.2652645
2.3901367	3.9058957
2.3925781	3.0471334
2.3950195	2.3477669
2.397461	3.3334665
2.3999023	5.7019634
2.4023438	8.53033
2.4047852	11.377401
2.4072266	13.937342
2.409668	15.983936
2.4121094	17.329092
2.4145508	17.869102
2.4169922	17.581852
2.4194336	16.524336
2.421875	14.872141
2.4243164	12.921298
2.4267578	11.031928
2.4291992	9.586198
2.4316406	8.773341
2.434082	8.417616
2.4365234	8.207891
2.4389648	7.9196486
2.4414062	7.5394726
2.4438477	7.27292
2.446289	7.30732
2.4487305	7.753516
