
X-Axis: Frequency (hz)
Y-Axis: Fourier Amplitude (cm/s)
Number of Data Sets: 4


DATASET #1

Name: FAS H1 (cm/s)
Num Points: 2044
Info: 

X, Y Data:
0.009765625	0.09421916
0.012207031	0.15476665
0.014648438	0.23529483
0.017089844	0.33552584
0.01953125	0.45348242
0.021972656	0.58707434
0.024414062	0.7322603
0.026855469	0.87588334
0.029296875	0.997795
0.03173828	1.0703703
0.034179688	1.0671147
0.036621094	0.9788533
0.0390625	0.8401498
0.041503906	0.80210173
0.043945312	1.0671235
0.04638672	1.6008942
0.048828125	2.2709217
0.05126953	2.9892294
0.053710938	3.6965196
0.056152344	4.3437066
0.05859375	4.898361
0.061035156	5.3538694
0.06347656	5.747157
0.06591797	6.164558
0.068359375	6.7098746
0.07080078	7.453942
0.07324219	8.388221
0.075683594	9.43328
0.078125	10.480032
0.080566406	11.426324
0.08300781	12.205849
0.08544922	12.796468
0.087890625	13.227333
0.09033203	13.580374
0.09277344	13.969395
0.095214844	14.514135
0.09765625	15.288961
0.10009766	16.28927
0.10253906	17.435192
0.10498047	18.59439
0.10742188	19.627039
0.10986328	20.408348
0.11230469	20.84044
0.11474609	20.875364
0.1171875	20.51233
0.11962891	19.817755
0.12207031	18.938267
0.12451172	18.094273
0.12695312	17.584927
0.12939453	17.726006
0.13183594	18.74743
0.13427734	20.713717
0.13671875	23.489075
0.13916016	26.789423
0.14160156	30.239466
0.14404297	33.4115
0.14648438	35.920006
0.14892578	37.503452
0.15136719	38.088932
0.1538086	37.831802
0.15625	37.031685
0.1586914	35.981514
0.16113281	34.823635
0.16357422	33.492397
0.16601562	31.847399
0.16845703	29.865622
0.17089844	27.735662
0.17333984	25.835367
0.17578125	24.575743
0.17822266	24.247498
0.18066406	24.96462
0.18310547	26.632391
0.18554688	28.916893
0.18798828	31.26784
0.19042969	33.059315
0.1928711	33.813408
0.1953125	33.38887
0.1977539	32.03474
0.20019531	30.268217
0.20263672	28.573689
0.20507812	27.082476
0.20751953	25.537218
0.20996094	23.566664
0.21240234	20.998638
0.21484375	17.98247
0.21728516	14.938565
0.21972656	12.502715
0.22216797	11.490505
0.22460938	12.488052
0.22705078	15.238769
0.22949219	18.993
0.2319336	23.08553
0.234375	27.050161
0.2368164	30.576982
0.23925781	33.467323
0.24169922	35.594494
0.24414062	36.869186
0.24658203	37.238346
0.24902344	36.709396
0.25146484	35.358486
0.25390625	33.31556
0.25634766	30.750698
0.25878906	27.85654
0.26123047	24.844833
0.26367188	21.957882
0.26611328	19.436592
0.2685547	17.455029
0.2709961	16.065344
0.2734375	15.193746
0.2758789	14.748505
0.2783203	14.785206
0.28076172	15.557266
0.28320312	17.356085
0.28564453	20.211514
0.28808594	23.742744
0.29052734	27.308397
0.29296875	30.209156
0.29541016	31.852076
0.29785156	31.90814
0.30029297	30.416811
0.30273438	27.831444
0.30517578	24.975296
0.3076172	22.789518
0.3100586	21.80222
0.3125	21.715801
0.3149414	21.715794
0.3173828	21.121378
0.31982422	19.709211
0.32226562	17.690903
0.32470703	15.511434
0.32714844	13.575094
0.32958984	11.975095
0.33203125	10.438086
0.33447266	8.590278
0.33691406	6.257873
0.33935547	3.5652776
0.34179688	0.8802681
0.34423828	1.3548478
0.3466797	2.7325141
0.3491211	3.1844368
0.3515625	3.2844841
0.3540039	4.3834124
0.3564453	6.8727345
0.35888672	10.062238
0.36132812	13.423442
0.36376953	16.655876
0.36621094	19.504932
0.36865234	21.629131
0.37109375	22.613913
0.37353516	22.121141
0.37597656	20.078194
0.37841797	16.813633
0.38085938	13.205388
0.38330078	11.064035
0.3857422	12.530027
0.3881836	16.989847
0.390625	22.330595
0.3930664	26.97071
0.3955078	29.691383
0.39794922	29.60897
0.40039062	26.393108
0.40283203	20.426914
0.40527344	12.793656
0.40771484	5.2672324
0.41015625	3.7894726
0.41259766	7.697043
0.41503906	9.65138
0.41748047	9.497328
0.41992188	8.095961
0.42236328	6.5091033
0.4248047	5.5182023
0.4272461	5.440082
0.4296875	6.2998834
0.4321289	7.844011
0.4345703	9.588641
0.43701172	11.034471
0.43945312	11.714207
0.44189453	11.142254
0.44433594	8.905324
0.44677734	5.148674
0.44921875	3.8410678
0.45166016	9.09384
0.45410156	14.604135
0.45654297	18.10703
0.45898438	18.538729
0.46142578	15.775152
0.4638672	10.915365
0.4663086	7.5519953
0.46875	10.597611
0.4711914	16.080326
0.4736328	20.763706
0.47607422	23.883406
0.47851562	25.158487
0.48095703	24.254179
0.48339844	20.928305
0.48583984	15.539306
0.48828125	9.8911705
0.49072266	8.807153
0.49316406	12.793226
0.49560547	16.326273
0.49804688	17.272076
0.5004883	15.339622
0.5029297	11.045395
0.5053711	5.327055
0.5078125	1.533967
0.5102539	6.9688425
0.5126953	11.734727
0.5151367	15.204709
0.5175781	17.344002
0.52001953	18.2896
0.52246094	18.223272
0.52490234	17.308155
0.52734375	15.679683
0.52978516	13.455207
0.53222656	10.761706
0.53466797	7.8978467
0.5371094	6.0419016
0.5395508	7.395195
0.5419922	11.107114
0.5444336	15.134779
0.546875	18.474543
0.5493164	20.727066
0.5517578	21.862282
0.5541992	21.929033
0.5566406	20.761755
0.55908203	18.014204
0.56152344	13.527847
0.56396484	7.8138857
0.56640625	3.7819266
0.56884766	7.16564
0.57128906	11.140305
0.57373047	12.958358
0.5761719	12.268176
0.5786133	9.432918
0.5810547	5.3604755
0.5834961	2.2955399
0.5859375	3.9366813
0.5883789	5.088137
0.5908203	3.8555973
0.5932617	0.56461436
0.5957031	3.8592932
0.59814453	7.9229927
0.60058594	11.045429
0.60302734	13.651469
0.60546875	16.608065
0.60791016	19.813969
0.61035156	22.1593
0.61279297	22.732811
0.6152344	21.562128
0.6176758	19.367712
0.6201172	16.745043
0.6225586	13.679792
0.625	10.028482
0.6274414	6.176479
0.6298828	2.841728
0.6323242	1.1018527
0.6347656	4.3007336
0.63720703	9.469525
0.63964844	15.727051
0.64208984	21.959282
0.64453125	26.939186
0.64697266	29.61833
0.64941406	29.357046
0.65185547	26.116144
0.6542969	20.524311
0.6567383	13.67239
0.6591797	6.7225084
0.6616211	0.6042198
0.6640625	4.1269207
0.6665039	7.0051174
0.6689453	7.8041544
0.6713867	6.6243105
0.6738281	4.288896
0.67626953	3.3727694
0.67871094	5.329993
0.68115234	7.1055694
0.68359375	7.532738
0.68603516	6.6913624
0.68847656	5.2604833
0.69091797	4.1805706
0.6933594	3.9067705
0.6958008	4.2187877
0.6982422	5.675558
0.7006836	8.791845
0.703125	12.826514
0.7055664	16.718073
0.7080078	19.687643
0.7104492	21.315596
0.7128906	21.36312
0.71533203	19.673302
0.71777344	16.271727
0.72021484	11.649698
0.72265625	7.4803386
0.72509766	7.479335
0.72753906	10.800871
0.72998047	13.578262
0.7324219	14.631561
0.7348633	14.117771
0.7373047	12.656039
0.7397461	10.724004
0.7421875	8.523486
0.7446289	6.513939
0.7470703	6.109377
0.7495117	7.8873744
0.7519531	9.999551
0.75439453	10.68707
0.75683594	9.009068
0.75927734	5.5384192
0.76171875	6.1226134
0.76416016	12.054748
0.76660156	17.425669
0.76904297	20.164228
0.7714844	19.945366
0.7739258	17.742039
0.7763672	15.276116
0.7788086	13.970556
0.78125	13.691961
0.7836914	13.054214
0.7861328	11.153735
0.7885742	9.605252
0.7910156	13.014241
0.79345703	20.61221
0.79589844	28.748312
0.79833984	35.328167
0.80078125	39.241173
0.80322266	39.86507
0.80566406	36.918957
0.80810547	30.771944
0.8105469	22.936733
0.8129883	16.670012
0.8154297	16.298685
0.8178711	20.6707
0.8203125	25.346632
0.8227539	28.257788
0.8251953	28.770685
0.8276367	26.9696
0.8300781	23.458134
0.83251953	19.159536
0.83496094	15.082744
0.83740234	12.376613
0.83984375	12.456857
0.84228516	15.447341
0.84472656	19.67717
0.84716797	23.475105
0.8496094	25.70162
0.8520508	25.80408
0.8544922	24.01115
0.8569336	21.482557
0.859375	19.941172
0.8618164	20.404425
0.8642578	22.358402
0.8666992	24.831362
0.8691406	27.298512
0.87158203	29.403597
0.87402344	30.621126
0.87646484	30.377028
0.87890625	28.361544
0.88134766	24.748335
0.88378906	20.212236
0.88623047	15.724843
0.8886719	12.127752
0.8911133	9.594668
0.8935547	7.58789
0.8959961	5.6129155
0.8984375	3.8801107
0.9008789	3.5962303
0.9033203	5.234311
0.9057617	7.8137145
0.9082031	10.976446
0.91064453	14.453278
0.91308594	17.6256
0.91552734	19.700026
0.91796875	20.085821
0.92041016	18.693214
0.92285156	16.051147
0.92529297	13.258556
0.9277344	11.685138
0.9301758	11.839643
0.9326172	12.554167
0.9350586	12.423304
0.9375	10.985094
0.9399414	9.037268
0.9423828	8.698002
0.9448242	11.084365
0.9472656	14.645153
0.94970703	17.907984
0.95214844	20.029114
0.95458984	20.542816
0.95703125	19.564259
0.95947266	18.003838
0.96191406	17.164211
0.96435547	17.52266
0.9667969	18.302715
0.9692383	18.579971
0.9716797	17.993687
0.9741211	16.651846
0.9765625	14.869917
0.9790039	13.077613
0.9814453	11.913916
0.9838867	12.124809
0.9863281	13.849283
0.98876953	16.394188
0.99121094	19.045792
0.99365234	21.476557
0.99609375	23.499842
0.99853516	24.743
1.0009766	24.696194
1.003418	23.160248
1.0058594	20.59083
1.0083008	17.996456
1.0107422	16.242407
1.0131836	15.268199
1.015625	14.602253
1.0180664	14.393624
1.0205078	15.231762
1.0229492	16.96319
1.0253906	18.589151
1.027832	19.207167
1.0302734	18.47941
1.0327148	16.564638
1.0351562	13.899529
1.0375977	11.033841
1.0400391	8.535818
1.0424805	6.880622
1.0449219	6.210531
1.0473633	6.2590218
1.0498047	6.7472076
1.0522461	7.5303464
1.0546875	8.308164
1.0571289	8.557225
1.0595703	7.8121505
1.0620117	5.9030194
1.0644531	3.2574224
1.0668945	2.8177235
1.0693359	6.112642
1.0717773	9.966618
1.0742188	13.833741
1.0766602	17.545265
1.0791016	20.679443
1.081543	22.58984
1.0839844	22.682001
1.0864258	20.669687
1.0888672	16.677664
1.0913086	11.29073
1.09375	6.047457
1.0961914	5.993156
1.0986328	10.454047
1.1010742	14.380395
1.1035156	16.754433
1.105957	17.803452
1.1083984	18.387835
1.1108398	19.358208
1.1132812	20.802698
1.1157227	22.078964
1.1181641	22.574833
1.1206055	22.267365
1.1230469	21.68708
1.1254883	21.415632
1.1279297	21.571838
1.1303711	21.845707
1.1328125	21.984285
1.1352539	22.07016
1.1376953	22.391834
1.1401367	23.215853
1.1425781	24.640194
1.1450195	26.516453
1.1474609	28.439583
1.1499023	29.788528
1.1523438	29.901272
1.1547852	28.36762
1.1572266	25.205389
1.159668	20.867346
1.1621094	16.132627
1.1645508	11.85879
1.1669922	8.642787
1.1694336	6.575075
1.171875	5.6036997
1.1743164	6.2236423
1.1767578	8.532568
1.1791992	11.664021
1.1816406	14.7409
1.184082	17.127485
1.1865234	18.37687
1.1889648	18.207645
1.1914062	16.564766
1.1938477	13.749105
1.1962891	10.747297
1.1987305	9.715154
1.2011719	12.136564
1.2036133	16.279352
1.2060547	20.167072
1.2084961	22.63569
1.2109375	23.01893
1.2133789	21.128225
1.2158203	17.337688
1.2182617	12.601432
1.2207031	8.443739
1.2231445	6.71621
1.2255859	7.2562766
1.2280273	7.8518724
1.2304688	7.5785465
1.2329102	6.7287965
1.2353516	6.4098015
1.237793	7.80168
1.2402344	10.57969
1.2426758	13.626778
1.2451172	16.077227
1.2475586	17.383549
1.25	17.278635
1.2524414	15.771885
1.2548828	13.099826
1.2573242	9.672851
1.2597656	6.0047812
1.262207	2.6534157
1.2646484	0.96011555
1.2670898	2.2455726
1.2695312	2.911475
1.2719727	2.7036111
1.2744141	1.8971806
1.2768555	0.956303
1.2792969	1.798812
1.2817383	4.357525
1.2841797	8.01558
1.2866211	12.606046
1.2890625	17.83913
1.2915039	23.400978
1.2939453	29.03982
1.2963867	34.55603
1.2988281	39.717297
1.3012695	44.176453
1.3037109	47.489166
1.3061523	49.21733
1.3085938	49.03376
1.3110352	46.768337
1.3134766	42.404987
1.315918	36.089718
1.3183594	28.19939
1.3208008	19.402529
1.3232422	10.607377
1.3256836	2.9886985
1.328125	4.1457205
1.3305664	8.388968
1.3330078	10.91421
1.3354492	11.971723
1.3378906	11.934575
1.340332	11.004054
1.3427734	9.210599
1.3452148	6.612903
1.3476562	3.8584769
1.3500977	4.3785768
1.3525391	8.5305395
1.3549805	13.504289
1.3574219	18.58754
1.3598633	23.485806
1.3623047	27.845974
1.3647461	31.126448
1.3671875	32.702465
1.3696289	32.096607
1.3720703	29.190882
1.3745117	24.350668
1.3769531	18.574194
1.3793945	14.112552
1.3818359	14.697336
1.3842773	20.246788
1.3867188	27.321774
1.3891602	33.949303
1.3916016	39.236507
1.394043	42.797184
1.3964844	44.572903
1.3989258	44.738255
1.4013672	43.583893
1.4038086	41.41536
1.40625	38.505955
1.4086914	35.07442
1.4111328	31.308146
1.4135742	27.381222
1.4160156	23.442379
1.418457	19.628157
1.4208984	16.08837
1.4233398	12.998816
1.4257812	10.579313
1.4282227	9.051284
1.4306641	8.53519
1.4331055	8.952531
1.4355469	10.031445
1.4379883	11.458785
1.4404297	12.939472
1.4428711	14.210226
1.4453125	15.119971
1.4477539	15.665406
1.4501953	15.953712
1.4526367	16.104492
1.4550781	16.075579
1.4575195	15.584879
1.4599609	14.244267
1.4624023	11.754883
1.4648438	8.154697
1.4672852	4.5115347
1.4697266	5.305042
1.472168	9.716114
1.4746094	13.915332
1.4770508	16.842913
1.4794922	18.140549
1.4819336	17.856169
1.484375	16.389465
1.4868164	14.351319
1.4892578	12.364558
1.4916992	10.860181
1.4941406	9.932018
1.496582	9.444869
1.4990234	9.257607
1.5014648	9.346981
1.5039062	9.807319
1.5063477	10.764685
1.5087891	12.264307
1.5112305	14.201157
1.5136719	16.336563
1.5161133	18.354534
1.5185547	19.915058
1.5209961	20.678183
1.5234375	20.36074
1.5258789	18.865128
1.5283203	16.484217
1.5307617	14.111679
1.5332031	13.071151
1.5356445	13.887385
1.5380859	15.47238
1.5405273	16.48107
1.5429688	16.222443
1.5454102	14.635763
1.5478516	12.109037
1.550293	9.306907
1.5527344	7.026852
1.5551758	5.8685174
1.5576172	5.7091007
1.5600586	6.029328
1.5625	6.718623
1.5649414	7.942585
1.5673828	9.672207
1.5698242	11.646246
1.5722656	13.588052
1.574707	15.321704
1.5771484	16.785078
1.5795898	18.026001
1.5820312	19.180807
1.5844727	20.391645
1.5869141	21.69422
1.5893555	22.949232
1.5917969	23.936756
1.5942383	24.478537
1.5966797	24.500734
1.5991211	24.00948
1.6015625	23.050285
1.6040039	21.730331
1.6064453	20.249386
1.6088867	18.890139
1.6113281	17.905167
1.6137695	17.33139
1.6162109	16.891674
1.6186523	16.152998
1.6210938	14.795284
1.6235352	12.851792
1.6259766	10.97392
1.628418	10.484958
1.6308594	12.224144
1.6333008	15.307656
1.6357422	18.422968
1.6381836	20.720783
1.640625	21.76137
1.6430664	21.392347
1.6455078	19.682615
1.6479492	16.85563
1.6503906	13.24516
1.652832	9.278235
1.6552734	5.483083
1.6577148	2.7605798
1.6601562	2.7892551
1.6625977	4.0646586
1.6650391	4.927495
1.6674805	5.2628593
1.6699219	5.1499157
1.6723633	4.6085668
1.6748047	3.6760883
1.6772461	2.672017
1.6796875	2.6207566
1.6821289	3.9333937
1.6845703	5.6195245
1.6870117	7.0744724
1.6894531	8.028444
1.6918945	8.356554
1.6943359	8.050405
1.6967773	7.174033
1.6992188	5.83349
1.7016602	4.231092
1.7041016	3.1029048
1.706543	4.166963
1.7089844	7.0174274
1.7114258	10.454107
1.7138672	13.917534
1.7163086	17.04559
1.71875	19.60803
1.7211914	21.48973
1.7236328	22.65965
1.7260742	23.1303
1.7285156	22.887213
1.730957	21.90395
1.7333984	20.182312
1.7358398	17.80717
1.7382812	14.978556
1.7407227	11.972488
1.7431641	9.05587
1.7456055	6.401788
1.7480469	4.066524
1.7504883	2.0778265
1.7529297	0.60229105
1.7553711	0.60442847
1.7578125	0.71210647
1.7602539	0.6199446
1.7626953	2.1052377
1.7651367	4.318846
1.7675781	6.682661
1.7700195	8.781403
1.7724609	10.35776
1.7749023	11.404544
1.7773438	12.11972
1.7797852	12.74766
1.7822266	13.404389
1.784668	14.036927
1.7871094	14.546576
1.7895508	14.927958
1.7919922	15.277313
1.7944336	15.708021
1.796875	16.27156
1.7993164	16.904402
1.8017578	17.4642
1.8041992	17.765724
1.8066406	17.591925
1.809082	16.757944
1.8115234	15.169882
1.8139648	12.889799
1.8164062	10.163434
1.8188477	7.3679957
1.8212891	4.911788
1.8237305	3.1257002
1.8261719	2.1717343
1.8286133	2.0408084
1.8310547	2.7435303
1.8334961	4.3206835
1.8359375	6.6910167
1.8383789	9.616008
1.8408203	12.696723
1.8432617	15.443208
1.8457031	17.426567
1.8481445	18.450167
1.8505859	18.715311
1.8530273	18.90547
1.8554688	19.962452
1.8579102	22.406021
1.8603516	25.831184
1.862793	29.287525
1.8652344	31.853226
1.8676758	32.900196
1.8701172	32.14631
1.8725586	29.616777
1.875	25.592985
1.8774414	20.553865
1.8798828	15.109619
1.8823242	9.921143
1.8847656	5.804656
1.887207	4.605314
1.8896484	6.999066
1.8920898	10.536112
1.8945312	14.151945
1.8969727	17.298155
1.8994141	19.500862
1.9018555	20.44215
1.9042969	20.065636
1.9067383	18.615173
1.9091797	16.536957
1.9116211	14.306546
1.9140625	12.227044
1.9165039	10.316066
1.9189453	8.450164
1.9213867	6.6025133
1.9238281	4.9943686
1.9262695	4.070726
1.9287109	4.045765
1.9311523	4.49481
1.9335938	4.9876175
1.9360352	5.503977
1.9384766	6.264463
1.940918	7.431701
1.9433594	8.917577
1.9458008	10.466197
1.9482422	11.825046
1.9506836	12.80551
1.953125	13.3262
1.9555664	13.390517
1.9580078	13.043428
1.9604492	12.346072
1.9628906	11.328335
1.965332	9.996275
1.9677734	8.38411
1.9702148	6.5695167
1.9726562	4.6987076
1.9750977	2.9622192
1.9775391	1.5428013
1.9799805	0.6724335
1.9824219	0.72295284
1.9848633	1.1662188
1.9873047	1.7748367
1.9897461	2.594543
1.9921875	3.5424569
1.9946289	4.473842
1.9970703	5.2327356
1.9995117	5.67307
2.0019531	5.694033
2.0043945	5.259346
2.006836	4.5213814
2.0092773	4.1104817
2.0117188	5.0335913
2.0141602	7.266588
2.0166016	9.993685
2.019043	12.556365
2.0214844	14.479893
2.0239258	15.44624
2.0263672	15.329228
2.0288086	14.18924
2.03125	12.253384
2.0336914	9.916972
2.0361328	7.7533355
2.0385742	6.536879
2.0410156	6.7192826
2.043457	7.707668
2.0458984	8.648348
2.0483398	9.097223
2.0507812	8.928008
2.0532227	8.21729
2.055664	7.1915913
2.0581055	6.1626487
2.0605469	5.506607
2.0629883	5.5800595
2.0654297	6.529057
2.067871	8.23221
2.0703125	10.430928
2.072754	12.821862
2.0751953	15.077663
2.0776367	16.870165
2.0800781	17.916784
2.0825195	18.003468
2.084961	17.039267
2.0874023	15.084671
2.0898438	12.358786
2.0922852	9.288578
2.0947266	6.6058354
2.097168	5.519729
2.0996094	6.4802246
2.1020508	8.111238
2.1044922	9.357583
2.1069336	9.821887
2.109375	9.490772
2.1118164	8.678119
2.1142578	8.073877
2.1166992	8.540574
2.1191406	10.297135
2.121582	12.793108
2.1240234	15.431884
2.1264648	17.837402
2.1289062	19.80782
2.1313477	21.232817
2.133789	22.049343
2.1362305	22.211998
2.1386719	21.668793
2.1411133	20.372755
2.1435547	18.295652
2.145996	15.473336
2.1484375	12.03495
2.150879	8.218834
2.1533203	4.381005
2.1557617	1.5929358
2.1582031	3.457421
2.1606445	6.088263
2.163086	8.224288
2.1655273	9.827459
2.1679688	10.994271
2.1704102	11.839309
2.1728516	12.433072
2.175293	12.779768
2.1777344	12.80968
2.1801758	12.401357
2.1826172	11.437784
2.1850586	9.842842
2.1875	7.6368537
2.1899414	5.0107827
2.1923828	2.6216338
2.1948242	2.8649032
2.1972656	5.028579
2.199707	6.8374715
2.2021484	7.7056503
2.2045898	7.4782505
2.2070312	6.4138103
2.2094727	5.536476
2.211914	6.531183
2.2143555	9.251042
2.2167969	12.261483
2.2192383	14.597034
2.2216797	15.710653
2.224121	15.367911
2.2265625	13.57446
2.229004	10.539055
2.2314453	6.6246
2.2338867	2.2880063
2.2363281	2.0972865
2.2387695	6.0096455
2.241211	9.322643
2.2436523	11.990904
2.2460938	14.122041
2.2485352	15.864885
2.2509766	17.291153
2.253418	18.36457
2.2558594	18.944914
2.2583008	18.853018
2.2607422	17.955355
2.2631836	16.264547
2.265625	14.030691
2.2680664	11.892652
2.2705078	10.855028
2.2729492	11.622046
2.2753906	13.668489
2.277832	15.893087
2.2802734	17.49
2.2827148	17.982023
2.2851562	17.200151
2.2875977	15.228036
2.290039	12.376252
2.2924805	9.218924
2.2949219	6.630449
2.2973633	5.81521
2.2998047	6.826483
2.302246	8.294255
2.3046875	9.378896
2.307129	9.847754
2.3095703	9.831876
2.3120117	9.669819
2.3144531	9.823681
2.3168945	10.593866
2.319336	11.931926
2.3217773	13.556521
2.3242188	15.167963
2.3266602	16.550678
2.3291016	17.564896
2.331543	18.126982
2.3339844	18.183914
2.3364258	17.706276
2.3388672	16.667488
2.3413086	15.076312
2.34375	12.991556
2.3461914	10.616753
2.3486328	8.398541
2.3510742	7.143875
2.3535156	7.438558
2.355957	8.635343
2.3583984	9.627482
2.3608398	9.703787
2.3632812	8.5541725
2.3657227	6.1509247
2.368164	2.7162838
2.3706055	1.8132277
2.3730469	6.266655
2.3754883	10.731054
2.3779297	14.738412
2.380371	18.018114
2.3828125	20.431057
2.385254	21.988132
2.3876953	22.759262
2.3901367	22.834969
2.3925781	22.260263
2.3950195	21.05986
2.397461	19.250093
2.3999023	16.86596
2.4023438	13.96101
2.4047852	10.608068
2.4072266	6.95462
2.409668	3.297015
2.4121094	2.128346
2.4145508	5.326029
2.4169922	8.760956
2.4194336	11.891367
2.421875	14.63435
2.4243164	16.979408
2.4267578	18.929209
2.4291992	20.421698
2.4316406	21.293142
2.434082	21.313118
2.4365234	20.266321
2.4389648	18.055874
2.4414062	14.7617
2.4438477	10.708199
2.446289	6.597904
2.4487305	4.4660606
